10uM,,20uM,,40uM,,80uM,,160uM,,320uM,
Wavelength (nm),Abs,Wavelength (nm),Abs,Wavelength (nm),Abs,Wavelength (nm),Abs,Wavelength (nm),Abs,Wavelength (nm),Abs
800.0369873,-0.003248828696,800.0369873,-0.003095671069,800.0369873,-0.003162799869,800.0369873,-0.002222206676,800.0369873,-0.002642615,800.0369873,-0.002876891056
799.0648804,-0.002676472999,799.0648804,-0.002560943831,799.0648804,-0.003364586039,799.0648804,-0.002137416741,799.0648804,-0.001348943333,799.0648804,-0.003366589546
797.9534302,-0.002191764535,797.9534302,-0.002492280677,797.9534302,-0.002518120687,797.9534302,-0.004021039698,797.9534302,-0.001731627854,797.9534302,-0.002810541075
796.9805298,-0.003313107882,796.9805298,-0.002969866619,796.9805298,-0.003099886235,796.9805298,-0.003066575387,796.9805298,-0.003674405161,796.9805298,-0.001929544378
796.0072632,-0.002013653517,796.0072632,-0.001921606716,796.0072632,-0.002871233737,796.0072632,-0.003003133694,796.0072632,-0.002184501383,796.0072632,-0.002902810927
795.0336304,-0.003153599799,795.0336304,-0.003236392979,795.0336304,-0.003138488624,795.0336304,-0.002228490543,795.0336304,-0.003858712735,795.0336304,-0.002873650985
794.0596313,-0.00345298904,794.0596313,-0.002835282125,794.0596313,-0.003422530368,794.0596313,-0.003455762519,794.0596313,-0.003205456538,794.0596313,-0.0026792516
792.9459839,-0.003418883309,792.9459839,-0.003863023128,792.9459839,-0.003775678808,792.9459839,-0.003310950007,792.9459839,-0.002867633477,792.9459839,-0.00300878915
791.9711304,-0.003326671664,791.9711304,-0.003411897458,791.9711304,-0.002822834533,791.9711304,-0.00394501444,791.9711304,-0.004027246498,791.9711304,-0.003909870051
790.9959717,-0.002856832929,790.9959717,-0.003143936861,790.9959717,-0.003420989262,790.9959717,-0.004633273464,790.9959717,-0.003908894956,790.9959717,-0.00415859092
790.0203857,-0.003756945254,790.0203857,-0.004157360177,790.0203857,-0.00466677174,790.0203857,-0.005075303838,790.0203857,-0.004007241223,790.0203857,-0.004619596526
789.0444336,-0.003632256528,789.0444336,-0.004114540294,789.0444336,-0.00475547323,789.0444336,-0.004850658588,789.0444336,-0.00538978586,789.0444336,-0.004353969358
788.0681152,-0.003916539717,788.0681152,-0.003983387724,788.0681152,-0.003553749295,788.0681152,-0.004516060464,788.0681152,-0.004795720801,788.0681152,-0.004641827196
786.9518433,-0.00471271202,786.9518433,-0.005449914373,786.9518433,-0.004290048964,786.9518433,-0.005518162623,786.9518433,-0.004412448034,786.9518433,-0.003003544873
785.9747314,-0.003997494932,785.9747314,-0.00440353062,785.9747314,-0.004384567961,785.9747314,-0.005642259959,785.9747314,-0.004301788285,785.9747314,-0.00414141221
784.9972534,-0.003976718988,784.9972534,-0.004895044025,784.9972534,-0.004813948646,784.9972534,-0.005559413228,784.9972534,-0.00564813707,784.9972534,-0.004751120228
784.0194092,-0.00407607574,784.0194092,-0.003883188823,784.0194092,-0.005199987907,784.0194092,-0.004766329192,784.0194092,-0.004068587441,784.0194092,-0.003644629382
783.0411987,-0.004111206625,783.0411987,-0.004620211199,783.0411987,-0.004376418889,783.0411987,-0.004431050736,783.0411987,-0.005274669267,783.0411987,-0.005680074915
782.062561,-0.00510963751,782.062561,-0.003725429997,782.062561,-0.005573264789,782.062561,-0.005567539949,782.062561,-0.004068433773,782.062561,-0.004505351651
780.9437256,-0.006215775385,780.9437256,-0.004510577768,780.9437256,-0.005373780616,780.9437256,-0.005280192941,780.9437256,-0.005049615167,780.9437256,-0.005364167038
779.9643555,-0.005277124234,779.9643555,-0.004587426782,779.9643555,-0.005074894521,779.9643555,-0.00544730667,779.9643555,-0.005007855594,779.9643555,-0.005390399136
778.9845581,-0.006028023548,778.9845581,-0.005286637228,778.9845581,-0.005842846818,778.9845581,-0.004112899303,778.9845581,-0.005093520042,778.9845581,-0.005154661834
778.0044556,-0.004798588343,778.0044556,-0.00576090673,778.0044556,-0.005221933592,778.0044556,-0.005151950289,778.0044556,-0.004295739345,778.0044556,-0.005799733102
777.0239868,-0.005297377706,777.0239868,-0.005358491093,777.0239868,-0.006288802251,777.0239868,-0.004318140447,777.0239868,-0.006856420077,777.0239868,-0.005288734101
776.0430908,-0.004777850583,776.0430908,-0.005179576576,776.0430908,-0.004578717984,776.0430908,-0.005169856362,776.0430908,-0.006224043202,776.0430908,-0.005760957487
775.0618896,-0.006193574052,775.0618896,-0.00568503188,775.0618896,-0.005162642803,775.0618896,-0.005172465462,775.0618896,-0.005735667422,775.0618896,-0.005250066519
773.9400635,-0.005810767412,773.9400635,-0.005542289931,773.9400635,-0.005429821089,773.9400635,-0.005707310047,773.9400635,-0.005124987569,773.9400635,-0.005595599767
772.9580078,-0.006241292693,772.9580078,-0.005484678783,772.9580078,-0.005748951342,772.9580078,-0.006325489376,772.9580078,-0.006124717183,772.9580078,-0.004375701305
771.975647,-0.006457823794,771.975647,-0.005531248637,771.975647,-0.005945607554,771.975647,-0.006484908052,771.975647,-0.005915221293,771.975647,-0.005093263928
770.9929199,-0.005839833058,770.9929199,-0.006262777373,770.9929199,-0.005402568728,770.9929199,-0.006570638623,770.9929199,-0.006424871739,770.9929199,-0.006691172719
770.0098267,-0.006031393539,770.0098267,-0.006654771511,770.0098267,-0.00562391337,770.0098267,-0.006476237439,770.0098267,-0.005954952911,770.0098267,-0.005910267122
769.0263672,-0.005548372399,769.0263672,-0.006014390849,769.0263672,-0.006219347939,769.0263672,-0.005683754105,769.0263672,-0.005744506605,769.0263672,-0.006907683797
768.0425415,-0.005844481289,768.0425415,-0.00541269267,768.0425415,-0.006360949483,768.0425415,-0.006474809255,768.0425415,-0.007185248658,768.0425415,-0.005742922425
767.0583496,-0.005869662855,767.0583496,-0.00545564061,767.0583496,-0.006076934747,767.0583496,-0.007187183946,767.0583496,-0.006281045731,767.0583496,-0.006526016165
765.9331055,-0.005936262198,765.9331055,-0.006737154908,765.9331055,-0.007122609764,765.9331055,-0.006633357145,765.9331055,-0.006131353322,765.9331055,-0.005246537272
764.9481201,-0.00618612254,764.9481201,-0.006856266875,764.9481201,-0.007190900855,764.9481201,-0.006153455935,764.9481201,-0.006785272621,764.9481201,-0.006585579831
763.9628296,-0.006477716379,763.9628296,-0.006412883755,763.9628296,-0.006098018959,763.9628296,-0.006331612356,763.9628296,-0.006521884818,763.9628296,-0.006998272147
762.9771118,-0.008422275074,762.9771118,-0.006799492985,762.9771118,-0.007150518242,762.9771118,-0.005782261491,762.9771118,-0.006611024495,762.9771118,-0.006400793325
761.9910889,-0.006334061269,761.9910889,-0.006135130767,761.9910889,-0.006457467098,761.9910889,-0.00769381877,761.9910889,-0.005937794223,761.9910889,-0.0074097584
761.0046387,-0.007048296742,761.0046387,-0.006662725005,761.0046387,-0.006284567062,761.0046387,-0.006940395571,761.0046387,-0.006995775737,761.0046387,-0.007130554412
760.0178833,-0.007104223594,760.0178833,-0.007104172837,760.0178833,-0.00774233928,760.0178833,-0.008260671049,760.0178833,-0.007295431104,760.0178833,-0.006843373645
759.0307617,-0.007285605185,759.0307617,-0.007368530612,759.0307617,-0.007704703137,759.0307617,-0.008086403832,759.0307617,-0.007331219036,759.0307617,-0.007432457525
758.0432739,-0.007525684312,758.0432739,-0.006682710256,758.0432739,-0.00853361655,758.0432739,-0.008070548996,758.0432739,-0.007838601246,758.0432739,-0.007052779198
757.055481,-0.007676220033,757.055481,-0.007775903679,757.055481,-0.006846686359,757.055481,-0.007598135155,757.055481,-0.007882174104,757.055481,-0.007848617621
756.0672607,-0.006708862726,756.0672607,-0.007989688776,756.0672607,-0.008073140867,756.0672607,-0.007833974436,756.0672607,-0.008382616565,756.0672607,-0.009482181631
754.937439,-0.008335436694,754.937439,-0.007896256633,754.937439,-0.008838401176,754.937439,-0.008604934439,754.937439,-0.008547982201,754.937439,-0.007229701616
753.9484863,-0.00827662088,753.9484863,-0.008423747495,753.9484863,-0.008130257018,753.9484863,-0.008491276763,753.9484863,-0.00849701371,753.9484863,-0.008270372637
752.9591675,-0.009104900062,752.9591675,-0.009114329703,752.9591675,-0.00882855989,752.9591675,-0.008229074068,752.9591675,-0.009022711776,752.9591675,-0.009123049676
751.9694824,-0.009470480494,751.9694824,-0.008857322857,751.9694824,-0.008842105046,751.9694824,-0.008607573807,751.9694824,-0.009530401789,751.9694824,-0.007960309274
750.9794312,-0.009402901866,750.9794312,-0.008973370306,750.9794312,-0.008895569481,750.9794312,-0.009464706294,750.9794312,-0.00915676076,750.9794312,-0.008418619633
749.9890747,-0.008620161563,749.9890747,-0.00886711292,749.9890747,-0.009435780346,749.9890747,-0.008773311041,749.9890747,-0.009727074765,749.9890747,-0.008994922973
748.9983521,-0.009145862423,748.9983521,-0.009214241989,748.9983521,-0.008609502576,748.9983521,-0.009402040392,748.9983521,-0.009639686905,748.9983521,-0.009147686884
748.0072632,-0.0103733819,748.0072632,-0.009252913296,748.0072632,-0.009441353381,748.0072632,-0.009222300723,748.0072632,-0.009061804973,748.0072632,-0.009426205419
747.0158081,-0.01029952243,747.0158081,-0.01009521727,747.0158081,-0.008803295903,747.0158081,-0.01007285994,747.0158081,-0.009598214179,747.0158081,-0.01023409422
746.0239868,-0.01046688948,746.0239868,-0.0109363962,746.0239868,-0.01089368481,746.0239868,-0.01082950737,746.0239868,-0.01099394541,746.0239868,-0.009648649022
745.0318604,-0.01030821819,745.0318604,-0.01072920952,745.0318604,-0.01060049422,745.0318604,-0.01109070051,745.0318604,-0.01088075899,745.0318604,-0.01032429561
744.0393677,-0.01058675162,744.0393677,-0.01051681954,744.0393677,-0.01197810564,744.0393677,-0.01101852674,744.0393677,-0.01149222814,744.0393677,-0.01112370379
743.0465088,-0.01070632786,743.0465088,-0.01069102343,743.0465088,-0.01164976228,743.0465088,-0.01177332923,743.0465088,-0.01149953902,743.0465088,-0.01162234228
742.0532837,-0.01134452317,742.0532837,-0.0110299848,742.0532837,-0.01161170751,742.0532837,-0.01078188606,742.0532837,-0.01080148108,742.0532837,-0.01206844859
741.0597534,-0.01146137062,741.0597534,-0.01114353538,741.0597534,-0.01139339432,741.0597534,-0.01158085745,741.0597534,-0.0119174635,741.0597534,-0.0115311509
740.0658569,-0.0116275847,740.0658569,-0.01179590262,740.0658569,-0.01190361101,740.0658569,-0.01200857386,740.0658569,-0.0126324892,740.0658569,-0.01129837055
738.9295044,-0.01267010253,738.9295044,-0.01236583199,738.9295044,-0.01183363888,738.9295044,-0.01231988892,738.9295044,-0.01199306268,738.9295044,-0.01221072301
737.9348755,-0.01199845131,737.9348755,-0.01257007755,737.9348755,-0.01233810559,737.9348755,-0.01243003365,737.9348755,-0.01227207854,737.9348755,-0.01230569743
736.9398804,-0.01290978771,736.9398804,-0.01311819814,736.9398804,-0.01240014844,736.9398804,-0.01280851103,736.9398804,-0.01300651953,736.9398804,-0.01213143487
735.944519,-0.01218072139,735.944519,-0.01254452765,735.944519,-0.01226941124,735.944519,-0.01247591525,735.944519,-0.01265632547,735.944519,-0.01254155952
734.9488525,-0.01283987705,734.9488525,-0.01227821875,734.9488525,-0.01231933571,734.9488525,-0.01269474067,734.9488525,-0.01284530479,734.9488525,-0.01225536875
733.9528198,-0.01221867558,733.9528198,-0.01210152917,733.9528198,-0.01244633459,733.9528198,-0.01188351214,733.9528198,-0.01265939232,733.9528198,-0.01221781969
732.9564209,-0.01231259201,732.9564209,-0.01183207706,732.9564209,-0.01260352228,732.9564209,-0.01274290681,732.9564209,-0.01218681224,732.9564209,-0.0120551046
731.9596558,-0.0124171041,731.9596558,-0.01196667273,731.9596558,-0.01207197271,731.9596558,-0.01192088891,731.9596558,-0.01229075063,731.9596558,-0.01175801083
730.9625854,-0.01228813361,730.9625854,-0.012733154,730.9625854,-0.01220916212,730.9625854,-0.01226020046,730.9625854,-0.01290772762,730.9625854,-0.01260241587
729.9651489,-0.01329844166,729.9651489,-0.01259446982,729.9651489,-0.01319544762,729.9651489,-0.01290124469,729.9651489,-0.01349572465,729.9651489,-0.01274577249
728.9674072,-0.01387377549,728.9674072,-0.01331827417,728.9674072,-0.01391484216,728.9674072,-0.01372477226,728.9674072,-0.01349155884,728.9674072,-0.01338444371
727.9692993,-0.01465341914,727.9692993,-0.0149279302,727.9692993,-0.01387262251,727.9692993,-0.01424889266,727.9692993,-0.01425936352,727.9692993,-0.01405190118
726.9708252,-0.01490737032,726.9708252,-0.0154470047,726.9708252,-0.01505296864,726.9708252,-0.01505331881,726.9708252,-0.01564731076,726.9708252,-0.01543146651
725.9720459,-0.01557469089,725.9720459,-0.01552538946,725.9720459,-0.01543981023,725.9720459,-0.01540633291,725.9720459,-0.01701624878,725.9720459,-0.01588940062
724.9729004,-0.01688998193,724.9729004,-0.01662228815,724.9729004,-0.01610676385,724.9729004,-0.01698055305,724.9729004,-0.01646844298,724.9729004,-0.01584357955
723.9733887,-0.01696332544,723.9733887,-0.0166392792,723.9733887,-0.0167314969,723.9733887,-0.01697920822,723.9733887,-0.01724140719,723.9733887,-0.01684396528
722.9735718,-0.01718164422,722.9735718,-0.01793063805,722.9735718,-0.0171982646,722.9735718,-0.017454613,722.9735718,-0.01749812625,722.9735718,-0.01739473082
721.9733887,-0.01745341904,721.9733887,-0.01707105525,721.9733887,-0.01748375408,721.9733887,-0.01775896735,721.9733887,-0.0177834183,721.9733887,-0.01812463813
720.9729004,-0.01780731976,720.9729004,-0.01814936474,720.9729004,-0.01792174578,720.9729004,-0.01774654351,720.9729004,-0.01814330742,720.9729004,-0.01817503572
719.9720459,-0.01795984805,719.9720459,-0.01823758893,719.9720459,-0.01829154789,719.9720459,-0.01793053932,719.9720459,-0.0183153227,719.9720459,-0.01774097607
718.9708252,-0.0180386249,718.9708252,-0.01820755564,718.9708252,-0.01818923466,718.9708252,-0.01836296916,718.9708252,-0.01844559237,718.9708252,-0.01816138066
717.9692993,-0.01826231182,717.9692993,-0.0175577458,717.9692993,-0.01751935855,717.9692993,-0.01834768429,717.9692993,-0.0181953907,717.9692993,-0.01798950322
716.9674683,-0.01810333505,716.9674683,-0.01799099334,716.9674683,-0.0182841029,716.9674683,-0.01808843762,716.9674683,-0.01833979227,716.9674683,-0.01783713512
715.965271,-0.01777556539,715.965271,-0.01794196479,715.965271,-0.01751632616,715.965271,-0.01780254953,715.965271,-0.01822388731,715.965271,-0.01775837131
714.9627075,-0.0173280742,714.9627075,-0.01732210442,714.9627075,-0.01753522083,714.9627075,-0.01757728495,714.9627075,-0.01743884757,714.9627075,-0.01749598794
713.9598389,-0.0167517215,713.9598389,-0.01682469249,713.9598389,-0.01657838747,713.9598389,-0.01705258898,713.9598389,-0.01670653932,713.9598389,-0.01705318503
712.956604,-0.01671301574,712.956604,-0.01627863944,712.956604,-0.01596231572,712.956604,-0.01619729772,712.956604,-0.01633239351,712.956604,-0.01607069373
711.953064,-0.01593421958,711.953064,-0.01593012735,711.953064,-0.01515752356,711.953064,-0.01565884613,711.953064,-0.01539424062,711.953064,-0.01560915448
710.9491577,-0.01484698616,710.9491577,-0.01481676567,710.9491577,-0.01428175811,710.9491577,-0.01508492325,710.9491577,-0.01487005036,710.9491577,-0.01451289468
709.9449463,-0.01328498498,709.9449463,-0.01332023274,709.9449463,-0.01302239578,709.9449463,-0.0141868135,709.9449463,-0.01360331383,709.9449463,-0.01361053903
708.9403687,-0.01319584902,708.9403687,-0.01302546076,708.9403687,-0.01281590015,708.9403687,-0.01287902985,708.9403687,-0.01285756938,708.9403687,-0.01276663598
707.9354858,-0.01155474503,707.9354858,-0.011900438,707.9354858,-0.01161402557,707.9354858,-0.01183001138,707.9354858,-0.01162889507,707.9354858,-0.01154002361
706.9302368,-0.01044535916,706.9302368,-0.01040295232,706.9302368,-0.01029426418,706.9302368,-0.01078092679,706.9302368,-0.01123274025,706.9302368,-0.01095366199
706.0683594,-0.009720999748,706.0683594,-0.008942789398,706.0683594,-0.009184945375,706.0683594,-0.009755677544,706.0683594,-0.009723379277,706.0683594,-0.009047861211
705.0625,-0.008465637453,705.0625,-0.007360742893,705.0625,-0.007688376587,705.0625,-0.007824008353,705.0625,-0.008602041751,705.0625,-0.007870429195
704.0563354,-0.006193574052,704.0563354,-0.005552972667,704.0563354,-0.006821102463,704.0563354,-0.006262011826,704.0563354,-0.005942186341,704.0563354,-0.006611228455
703.0498047,-0.004785940982,703.0498047,-0.005613027606,703.0498047,-0.004984722473,703.0498047,-0.0057498198,703.0498047,-0.005311237648,703.0498047,-0.005302543286
702.0429688,-0.004190689884,702.0429688,-0.00392680103,702.0429688,-0.00408802554,702.0429688,-0.004664210603,702.0429688,-0.004331006203,702.0429688,-0.003326825798
701.0357666,-0.002746187383,701.0357666,-0.002879616804,701.0357666,-0.002589610172,701.0357666,-0.003000614233,701.0357666,-0.003249907633,701.0357666,-0.002430248074
700.0282593,-0.001838201541,700.0282593,-0.001296348171,700.0282593,-0.00140318356,700.0282593,-0.001867946819,700.0282593,-0.001499106525,700.0282593,-0.001126028248
699.0204468,0.0007615854265,699.0204468,0.0002615011181,699.0204468,-0.0003053470573,699.0204468,3.52050597E-06,699.0204468,-0.0001696752588,699.0204468,4.191140397E-05
698.0122681,0.001464869594,698.0122681,0.001190391253,698.0122681,0.001004760386,698.0122681,0.0009980404284,698.0122681,0.001275175135,698.0122681,0.001410640427
697.0037842,0.002297049854,697.0037842,0.003104520729,697.0037842,0.002653480275,697.0037842,0.003069377504,697.0037842,0.002039964311,697.0037842,0.002604961861
695.9949341,0.004381143488,695.9949341,0.003487238893,695.9949341,0.003817827441,695.9949341,0.003228430869,695.9949341,0.003626606893,695.9949341,0.003853396978
694.9857788,0.005018115509,694.9857788,0.005299190991,694.9857788,0.005005127285,694.9857788,0.004628839903,694.9857788,0.004549441393,694.9857788,0.004787078593
693.9763184,0.005863173865,693.9763184,0.006601713598,693.9763184,0.005284438375,693.9763184,0.004341818392,693.9763184,0.004729449749,693.9763184,0.00541030895
692.9664917,0.006706119981,692.9664917,0.006841081195,692.9664917,0.005979737733,692.9664917,0.006938522216,692.9664917,0.006320135668,692.9664917,0.00696448423
691.9563599,0.007498713676,691.9563599,0.008292862214,691.9563599,0.00764472317,691.9563599,0.007270565256,691.9563599,0.007255140226,691.9563599,0.00767238671
690.9458618,0.008092645556,690.9458618,0.008635527454,690.9458618,0.008434071206,690.9458618,0.008444312029,690.9458618,0.008645614609,690.9458618,0.008633731864
689.9350586,0.009331958368,689.9350586,0.009660702199,689.9350586,0.009399168193,689.9350586,0.009084288962,689.9350586,0.009095046669,689.9350586,0.00989045389
689.0684204,0.01026128419,689.0684204,0.0106769735,689.0684204,0.009798464365,689.0684204,0.01012960169,689.0684204,0.009377134033,689.0684204,0.009945461527
688.0570068,0.01103801467,688.0570068,0.01119818073,688.0570068,0.01114721131,688.0570068,0.0108352555,688.0570068,0.01137915999,688.0570068,0.01198164653
687.0452881,0.01045072917,687.0452881,0.0109507991,687.0452881,0.01160554308,687.0452881,0.01139220782,687.0452881,0.01042195968,687.0452881,0.01078507118
686.0332642,0.01175264735,686.0332642,0.01109845191,686.0332642,0.01189304423,686.0332642,0.01207495108,686.0332642,0.01106172614,686.0332642,0.01231466606
685.020874,0.01236438751,685.020874,0.01239483152,685.020874,0.01145179011,685.020874,0.01252629701,685.020874,0.01217253599,685.020874,0.01217740774
684.0081787,0.01248641312,684.0081787,0.01269559562,684.0081787,0.01234406698,684.0081787,0.0121684894,684.0081787,0.01325128414,684.0081787,0.01270121988
682.9951782,0.01284045726,682.9951782,0.01298971381,682.9951782,0.01330861356,682.9951782,0.0121119488,682.9951782,0.01294461358,682.9951782,0.0134206526
681.9818726,0.01323887426,681.9818726,0.01368656941,681.9818726,0.01370139606,681.9818726,0.01360979863,681.9818726,0.01303908601,681.9818726,0.01310343109
680.9682007,0.01401691604,680.9682007,0.01465897914,680.9682007,0.01448219549,680.9682007,0.01385105681,680.9682007,0.01472254656,680.9682007,0.0134026045
679.9542236,0.0141580198,679.9542236,0.01393821556,679.9542236,0.01424564142,679.9542236,0.01362013537,679.9542236,0.01468321029,679.9542236,0.01463745255
678.9398804,0.01374502573,678.9398804,0.01413576957,678.9398804,0.01380145829,678.9398804,0.01320252754,678.9398804,0.01397692226,678.9398804,0.01484917384
678.0702515,0.0145317642,678.0702515,0.01404859871,678.0702515,0.0147753302,678.0702515,0.01379953418,678.0702515,0.01407846436,678.0702515,0.01447504945
677.0553589,0.01520825922,677.0553589,0.01531542651,677.0553589,0.01561612729,677.0553589,0.01548935659,677.0553589,0.01565165631,677.0553589,0.01580513269
676.0401001,0.01648092642,676.0401001,0.01557126455,676.0401001,0.01595200039,676.0401001,0.01466535125,676.0401001,0.01454054378,676.0401001,0.01570221968
675.0245972,0.01450588182,675.0245972,0.01521308441,675.0245972,0.01511071436,675.0245972,0.01448631659,675.0245972,0.01518075448,675.0245972,0.01486339793
674.008728,0.01610727422,674.008728,0.01637107879,674.008728,0.01505137701,674.008728,0.01521801762,674.008728,0.01485849544,674.008728,0.01453813445
672.9925537,0.01565970853,672.9925537,0.01628939621,672.9925537,0.01664077304,672.9925537,0.0158304479,672.9925537,0.01606904902,672.9925537,0.01582878269
671.9760742,0.0154500585,671.9760742,0.0152351493,671.9760742,0.01578835398,671.9760742,0.01555200014,671.9760742,0.0154207414,671.9760742,0.01525220089
670.9592896,0.01508010644,670.9592896,0.01479378343,670.9592896,0.01558865048,670.9592896,0.01537171472,670.9592896,0.01526525803,670.9592896,0.01604790799
669.9421387,0.01535519492,669.9421387,0.01573523134,669.9421387,0.01513666008,669.9421387,0.01570549235,669.9421387,0.0156885311,669.9421387,0.01600246318
669.0700684,0.0149460705,669.0700684,0.01588578336,669.0700684,0.01627789438,669.0700684,0.0161133986,669.0700684,0.01485404931,669.0700684,0.0157324411
668.0523682,0.01571783982,668.0523682,0.01522809826,668.0523682,0.01647632755,668.0523682,0.01493240707,668.0523682,0.01604538411,668.0523682,0.01525362208
667.0343018,0.0144666452,667.0343018,0.01411354728,667.0343018,0.01395265013,667.0343018,0.01412828173,667.0343018,0.01479075663,667.0343018,0.01512835082
666.0159912,0.01482426282,666.0159912,0.01395281032,666.0159912,0.01440332923,666.0159912,0.01356025413,666.0159912,0.01415660232,666.0159912,0.01383339148
664.9973145,0.01383558288,664.9973145,0.01374764368,664.9973145,0.01353976969,664.9973145,0.01356025413,664.9973145,0.01367705967,664.9973145,0.0132180322
663.9783936,0.01315140259,663.9783936,0.01406022906,663.9783936,0.01429250836,663.9783936,0.01356145553,663.9783936,0.01350951381,663.9783936,0.01447199844
662.9591064,0.01355595421,662.9591064,0.01397178974,662.9591064,0.0133886151,662.9591064,0.01265319157,662.9591064,0.01323041413,662.9591064,0.01323924772
661.9395142,0.01348879188,661.9395142,0.01339988131,661.9395142,0.01303193718,661.9395142,0.01295133494,661.9395142,0.01267320663,661.9395142,0.01353146508
661.0653076,0.01310215052,661.0653076,0.01307899412,661.0653076,0.01342802122,661.0653076,0.0124951778,661.0653076,0.01325221825,661.0653076,0.01350577548
660.045105,0.0129746981,660.045105,0.01274234895,660.045105,0.01347012725,660.045105,0.01292125229,660.045105,0.01262662094,660.045105,0.012982646
659.0246582,0.01259235106,659.0246582,0.01241632644,659.0246582,0.01293279976,659.0246582,0.01257598959,659.0246582,0.01293312013,659.0246582,0.01281376835
658.0038452,0.01295869518,658.0038452,0.01354810223,658.0038452,0.01307878084,658.0038452,0.012494619,658.0038452,0.01284842938,658.0038452,0.0133267371
656.9827271,0.01274402812,656.9827271,0.01246677898,656.9827271,0.01310508512,656.9827271,0.01278382912,656.9827271,0.01338701323,656.9827271,0.01342332177
655.9613037,0.0118296491,655.9613037,0.01263440307,655.9613037,0.01279283967,655.9613037,0.01296949666,655.9613037,0.01263424288,655.9613037,0.01301969402
654.9395752,0.01311098132,654.9395752,0.01327335555,654.9395752,0.01171815302,654.9395752,0.01259887964,654.9395752,0.01363041904,654.9395752,0.01245052926
654.0635376,0.01237919647,654.0635376,0.0122797545,654.0635376,0.01214466337,654.0635376,0.01291770581,654.0635376,0.01237429585,654.0635376,0.01250253152
653.0412598,0.01218198612,653.0412598,0.01261465531,653.0412598,0.0127212638,653.0412598,0.01272976678,653.0412598,0.01277580485,653.0412598,0.01240604464
652.0186768,0.01240207627,652.0186768,0.01323836762,652.0186768,0.01304271445,652.0186768,0.0126383733,652.0186768,0.0120448228,652.0186768,0.01281035598
650.9957275,0.01208264288,650.9957275,0.01286898647,650.9957275,0.01276714075,650.9957275,0.01231823489,650.9957275,0.01187074929,650.9957275,0.0125605613
649.9724731,0.01243555825,649.9724731,0.01235903427,649.9724731,0.01259893272,649.9724731,0.01244687941,649.9724731,0.01221670303,649.9724731,0.01264492981
648.9489746,0.01241001394,648.9489746,0.01284405589,648.9489746,0.01290815882,648.9489746,0.01240362134,648.9489746,0.01242546272,648.9489746,0.01294069365
648.0714111,0.0120448228,648.0714111,0.01268205605,648.0714111,0.01308945194,648.0714111,0.01245263405,648.0714111,0.01177344564,648.0714111,0.01306152064
647.0473022,0.01294336095,647.0473022,0.01274554804,647.0473022,0.01220458932,647.0473022,0.01179366,647.0473022,0.01202723198,647.0473022,0.01229631808
646.0228882,0.01214940194,646.0228882,0.01237663906,646.0228882,0.01284352317,646.0228882,0.01279974449,646.0228882,0.01263653487,646.0228882,0.01285637449
644.9981689,0.01250817999,644.9981689,0.01249616407,644.9981689,0.01286440063,644.9981689,0.01223603357,644.9981689,0.01204484981,644.9981689,0.01241579372
643.9731445,0.01230633073,643.9731445,0.01271673292,643.9731445,0.01343157236,643.9731445,0.01236055233,643.9731445,0.01207330078,643.9731445,0.01241209079
642.947876,0.01184672769,642.947876,0.01231445279,642.947876,0.01289117243,642.947876,0.01238300558,642.947876,0.01237594709,642.947876,0.01261961181
642.0687866,0.01219348796,642.0687866,0.01190081239,642.0687866,0.01312949695,642.0687866,0.01238079462,642.0687866,0.01248889044,642.0687866,0.01328355074
641.0429077,0.01330146007,641.0429077,0.01221489254,641.0429077,0.01237874385,641.0429077,0.01257415116,641.0429077,0.01225102413,641.0429077,0.01249645744
640.0167236,0.01238987688,640.0167236,0.0124740256,640.0167236,0.01254223008,640.0167236,0.01191741414,640.0167236,0.01188088581,640.0167236,0.01265713573
638.9902344,0.01308406238,638.9902344,0.01235509291,638.9902344,0.01255461946,638.9902344,0.01252523065,638.9902344,0.01186745055,638.9902344,0.0125841964
637.9634399,0.0127551714,637.9634399,0.01207811851,637.9634399,0.01299510151,637.9634399,0.01208117977,637.9634399,0.01279219985,637.9634399,0.01254995633
636.9363403,0.01241704542,636.9363403,0.01332964748,636.9363403,0.01260181051,636.9363403,0.01179908589,636.9363403,0.01265140623,636.9363403,0.01243955456
636.0557251,0.01272195671,636.0557251,0.01225027815,636.0557251,0.01217943057,636.0557251,0.01245167479,636.0557251,0.01190001424,636.0557251,0.01211389154
635.0280762,0.01271865144,635.0280762,0.01311663724,635.0280762,0.0127010867,635.0280762,0.0121632982,635.0280762,0.01203199569,635.0280762,0.01240737643
634.0001221,0.01254231017,634.0001221,0.0123986667,634.0001221,0.01298821997,634.0001221,0.01282360591,634.0001221,0.01251814421,634.0001221,0.01303743292
632.9718628,0.01227581408,632.9718628,0.01340044197,632.9718628,0.01261079125,632.9718628,0.01205962058,632.9718628,0.01238239277,632.9718628,0.01254412159
631.9433594,0.01193782128,631.9433594,0.01226596162,631.9433594,0.01248172484,631.9433594,0.01310017612,631.9433594,0.01188548841,631.9433594,0.01286269445
631.0614624,0.01236587949,631.0614624,0.01285602804,631.0614624,0.01229959354,631.0614624,0.01216960698,631.0614624,0.01300726458,631.0614624,0.0125586167
630.0324097,0.01292863954,630.0324097,0.01241366286,630.0324097,0.01233871374,630.0324097,0.01261438895,630.0324097,0.01250119973,630.0324097,0.01309966948
629.0029907,0.01274517458,629.0029907,0.01259261742,629.0029907,0.01205927506,629.0029907,0.01273483224,629.0029907,0.01235024538,629.0029907,0.01260783337
627.9732666,0.01347159594,627.9732666,0.01250961795,627.9732666,0.01294738799,627.9732666,0.01232334785,627.9732666,0.01232281514,627.9732666,0.01246238407
626.9432983,0.01302868314,626.9432983,0.01223001629,626.9432983,0.01286298782,626.9432983,0.01260210387,626.9432983,0.012363296,626.9432983,0.01313872915
626.0602417,0.01304252725,626.0602417,0.01250133291,626.0602417,0.01277729776,626.0602417,0.01235908829,626.0602417,0.01229016669,626.0602417,0.01265809499
625.0296631,0.01328774169,625.0296631,0.01283576433,625.0296631,0.01304284763,625.0296631,0.01255456638,625.0296631,0.01277193893,625.0296631,0.01339721214
623.9988403,0.01311991923,623.9988403,0.01271348074,623.9988403,0.01272798143,623.9988403,0.01246091817,623.9988403,0.01248055231,623.9988403,0.01271294802
622.9677124,0.0126434369,622.9677124,0.0133244954,622.9677124,0.01257399097,622.9677124,0.01308635715,622.9677124,0.01269439608,622.9677124,0.01292877272
621.9362793,0.01251678541,621.9362793,0.01344291959,621.9362793,0.01296760328,621.9362793,0.01306661591,621.9362793,0.01301457267,621.9362793,0.01288687903
621.052002,0.01263067126,621.052002,0.01278913394,621.052002,0.01273627114,621.052002,0.01283787098,621.052002,0.01213824842,621.052002,0.01243188232
620.0200195,0.01358282194,620.0200195,0.01346865855,620.0200195,0.01281955373,620.0200195,0.01267992333,620.0200195,0.01270748302,620.0200195,0.01256522443
618.9877319,0.01338159386,618.9877319,0.01293714717,618.9877319,0.01212153118,618.9877319,0.01216228679,618.9877319,0.01224876009,618.9877319,0.01246129163
617.9552002,0.01215203758,617.9552002,0.01258571539,617.9552002,0.01269980706,617.9552002,0.01270820294,617.9552002,0.01212752052,617.9552002,0.01258739457
617.0698853,0.01288391929,617.0698853,0.01239355281,617.0698853,0.01248763874,617.0698853,0.01223323774,617.0698853,0.01238761283,617.0698853,0.01315695234
616.0368042,0.01296197623,616.0368042,0.01236036606,616.0368042,0.01236819662,616.0368042,0.0120639056,616.0368042,0.01222974993,616.0368042,0.01267144829
615.003418,0.01257380471,615.003418,0.01222849824,615.003418,0.01210992597,615.003418,0.01202510297,615.003418,0.01204564795,615.003418,0.01231618412
613.9697266,0.01202475652,613.9697266,0.01176461577,613.9697266,0.01212805323,613.9697266,0.01198962983,613.9697266,0.01217969693,613.9697266,0.01238462981
612.935791,0.01235253643,612.935791,0.01210947335,612.935791,0.01205118373,612.935791,0.01192409266,612.935791,0.01267451327,612.935791,0.01222812571
612.0493164,0.01204780396,612.0493164,0.01232119091,612.0493164,0.01215893216,612.0493164,0.0118416734,612.0493164,0.01203167625,612.0493164,0.01276786067
611.0148315,0.01224032044,611.0148315,0.01227618661,611.0148315,0.01215967722,611.0148315,0.011989736,611.0148315,0.0116523914,611.0148315,0.01194787957
609.9799805,0.01223520748,609.9799805,0.01203761064,609.9799805,0.01204990689,609.9799805,0.01217628922,609.9799805,0.0120547507,609.9799805,0.01208386756
608.9449463,0.01168145519,608.9449463,0.01198398788,608.9449463,0.01216260623,608.9449463,0.01202515606,608.9449463,0.01227895636,608.9449463,0.01208314858
608.0574951,0.01250737999,608.0574951,0.0121002635,608.0574951,0.01181073673,608.0574951,0.01189788617,608.0574951,0.01186606754,608.0574951,0.01166329347
607.0218506,0.01247349288,607.0218506,0.01211208198,607.0218506,0.01226510946,607.0218506,0.01184978709,607.0218506,0.01208139211,607.0218506,0.01224053279
605.9859619,0.01191291772,605.9859619,0.01229056623,605.9859619,0.01230601128,605.9859619,0.01201871596,605.9859619,0.01176692918,605.9859619,0.01183260232
604.9497681,0.01190717146,604.9497681,0.01174139697,604.9497681,0.01198627613,604.9497681,0.01167127118,604.9497681,0.01169932541,604.9497681,0.01160283107
604.0614014,0.01124721766,604.0614014,0.01182589866,604.0614014,0.01198537182,604.0614014,0.01168852858,604.0614014,0.0123402318,604.0614014,0.01187122893
603.0247192,0.01168945991,603.0247192,0.01197627094,603.0247192,0.01184856333,603.0247192,0.01165696513,603.0247192,0.01153230201,603.0247192,0.01156337745
601.9876709,0.01107670274,601.9876709,0.01191182714,601.9876709,0.01180286333,601.9876709,0.01097256783,601.9876709,0.01154378522,601.9876709,0.01168360934
600.9504395,0.0120454086,600.9504395,0.01173286047,600.9504395,0.01109802723,600.9504395,0.01145293377,600.9504395,0.01147201657,600.9504395,0.0113782296
600.0610962,0.01177714299,600.0610962,0.01152089797,600.0610962,0.01178296749,600.0610962,0.01152089797,600.0610962,0.01112235337,600.0610962,0.0119351875
599.0232544,0.01144711301,599.0232544,0.01156840194,599.0232544,0.01139999367,599.0232544,0.01128980331,599.0232544,0.0112434458,599.0232544,0.01168767828
597.9851685,0.01158799604,597.9851685,0.01180320885,597.9851685,0.01133130398,597.9851685,0.0113463169,597.9851685,0.01134397835,597.9851685,0.01155582815
596.9468384,0.01164850965,596.9468384,0.01139999367,596.9468384,0.0115190642,596.9468384,0.01130268909,596.9468384,0.01147807669,596.9468384,0.011364704
596.0565796,0.01140793972,596.0565796,0.01132208481,596.0565796,0.01155893784,596.0565796,0.01131788641,596.0565796,0.01125670131,596.0565796,0.01178349927
595.0176392,0.01133255288,595.0176392,0.01127431449,595.0176392,0.01139018778,595.0176392,0.01154609863,595.0176392,0.01079658885,595.0176392,0.01110009849
593.9784546,0.01134939864,593.9784546,0.01108339522,593.9784546,0.01218414307,593.9784546,0.01099388674,593.9784546,0.01095462218,593.9784546,0.01148650236
592.9390259,0.01156920008,592.9390259,0.01211290713,592.9390259,0.01111425273,592.9390259,0.01089988463,592.9390259,0.01076771691,592.9390259,0.01113175415
592.0478516,0.01124073565,592.0478516,0.01116025168,592.0478516,0.01097716112,592.0478516,0.01070199255,592.0478516,0.01127992012,592.0478516,0.01076020673
591.0078735,0.01081139687,591.0078735,0.01114848629,591.0078735,0.01082389615,591.0078735,0.0107546607,591.0078735,0.01116237696,591.0078735,0.01104470622
589.9675903,0.01109786797,589.9675903,0.0112063624,589.9675903,0.01089741662,589.9675903,0.01079154667,589.9675903,0.01082777139,589.9675903,0.01082251593
588.927063,0.01062686089,588.927063,0.01075710263,588.927063,0.01111303177,588.927063,0.01067577954,588.927063,0.01068543643,588.927063,0.01079120114
588.0349731,0.01042821724,588.0349731,0.0104228612,588.0349731,0.01058497652,588.0349731,0.0102795735,588.0349731,0.01025622152,588.0349731,0.01080271881
586.9938965,0.01038558315,586.9938965,0.01087490749,586.9938965,0.01056691352,586.9938965,0.0106102284,586.9938965,0.01025219355,586.9938965,0.01113568526
585.9525757,0.01018249243,585.9525757,0.01030364074,585.9525757,0.01051893551,585.9525757,0.01010670885,585.9525757,0.01017796062,585.9525757,0.0104688406
585.0597534,0.01042405516,585.0597534,0.01028532535,585.0597534,0.01043415722,585.0597534,0.01000293903,585.0597534,0.00993044395,585.0597534,0.01043097489
584.0179443,0.01055383775,584.0179443,0.01021357812,584.0179443,0.009957697242,584.0179443,0.009723912925,584.0179443,0.01012003608,584.0179443,0.01092141215
582.9758301,0.01050816756,582.9758301,0.009890930727,582.9758301,0.009981085546,582.9758301,0.009723436087,582.9758301,0.009592127986,582.9758301,0.01000640914
581.9334106,0.009859099984,581.9334106,0.01023332216,581.9334106,0.01006495394,581.9334106,0.009443398565,581.9334106,0.00962669123,581.9334106,0.009827351198
581.0397339,0.009613881819,581.0397339,0.009707632475,581.0397339,0.009760736488,581.0397339,0.009827721864,581.0397339,0.009509938769,581.0397339,0.01025852747
579.9968262,0.009520998225,579.9968262,0.009473796934,579.9968262,0.009461282752,579.9968262,0.009643736295,579.9968262,0.008898741566,579.9968262,0.0094009405
578.9536743,0.009638971649,578.9536743,0.009237390012,578.9536743,0.009446097538,578.9536743,0.008888410404,578.9536743,0.009334021248,578.9536743,0.009950281121
578.0592651,0.009604804218,578.0592651,0.009393481538,578.0592651,0.008978568949,578.0592651,0.00922358688,578.0592651,0.009096395224,578.0592651,0.009721503593
577.015625,0.008878211491,577.015625,0.009009172209,577.015625,0.009081883356,577.015625,0.008585174568,577.015625,0.008916258812,577.015625,0.008887987584
575.9716187,0.008699380793,575.9716187,0.008807384409,575.9716187,0.008745944127,575.9716187,0.008942946792,575.9716187,0.008294286206,575.9716187,0.008686361834
574.9274292,0.00847482495,574.9274292,0.00843874272,574.9274292,0.008659266867,574.9274292,0.008353868499,574.9274292,0.008335528895,574.9274292,0.008688315749
574.0321655,0.00861973688,574.0321655,0.008725553751,574.0321655,0.00854250975,574.0321655,0.00836096704,574.0321655,0.008255343884,574.0321655,0.008716336451
572.9874268,0.008611128666,572.9874268,0.008499769494,572.9874268,0.008125718683,572.9874268,0.008248985745,572.9874268,0.007943876088,572.9874268,0.008075186983
571.9424438,0.008063109592,571.9424438,0.008198861964,571.9424438,0.007953129709,571.9424438,0.008240068331,571.9424438,0.007904727012,571.9424438,0.008213107474
571.0465088,0.007896185853,571.0465088,0.008015722968,571.0465088,0.008258800022,571.0465088,0.007968553342,571.0465088,0.007889437489,571.0465088,0.007538878825
570.0009766,0.007591718808,570.0009766,0.007530793082,570.0009766,0.00762327807,570.0009766,0.007917854935,570.0009766,0.007450941019,570.0009766,0.007981814444
568.9552002,0.007357071154,568.9552002,0.007487283554,568.9552002,0.007259746548,568.9552002,0.007271117996,568.9552002,0.00684781326,568.9552002,0.007468717173
568.0585938,0.007296994328,568.0585938,0.00693381438,568.0585938,0.007178312633,568.0585938,0.007066162769,568.0585938,0.006949359085,568.0585938,0.007029671222
567.0123291,0.006853493396,567.0123291,0.006822016556,567.0123291,0.006643740926,567.0123291,0.007061716169,567.0123291,0.007044719998,567.0123291,0.006974243093
565.9658203,0.006542634685,565.9658203,0.006763696205,565.9658203,0.006375953089,565.9658203,0.00668582553,565.9658203,0.006361532025,565.9658203,0.006806975231
565.0685425,0.006616563071,565.0685425,0.006372485776,565.0685425,0.006730595604,565.0685425,0.00629284652,565.0685425,0.005979895126,565.0685425,0.006518589798
564.0215454,0.006503033917,564.0215454,0.006320161745,564.0215454,0.006180950906,564.0215454,0.006379630882,564.0215454,0.006203795318,564.0215454,0.005940923002
562.9742432,0.006464199163,562.9742432,0.005912214983,562.9742432,0.006210701074,562.9742432,0.005624553654,562.9742432,0.005513957702,562.9742432,0.005460819695
561.9266968,0.005338812713,561.9266968,0.005575440358,561.9266968,0.005606748629,561.9266968,0.005479903426,561.9266968,0.005771823227,561.9266968,0.005510680377
561.0285645,0.005025369581,561.0285645,0.005136705469,561.0285645,0.005300527439,561.0285645,0.005203610286,561.0285645,0.004997009411,561.0285645,0.005365937017
559.9804688,0.004994260147,559.9804688,0.005014423281,559.9804688,0.005300527439,559.9804688,0.00470610708,559.9804688,0.004816654604,559.9804688,0.005082461517
558.9321899,0.004300012719,558.9321899,0.004471155815,558.9321899,0.004892306402,558.9321899,0.004667249508,558.9321899,0.004305607639,558.9321899,0.004740859848
558.0333862,0.004359989893,558.0333862,0.004659425933,558.0333862,0.004383104853,558.0333862,0.004281267989,558.0333862,0.004462891258,558.0333862,0.004534766544
556.9845581,0.003858986078,556.9845581,0.004239076283,556.9845581,0.004003933631,556.9845581,0.003828560701,556.9845581,0.003677066881,556.9845581,0.003878652584
555.9354858,0.003699101042,555.9354858,0.003839659737,555.9354858,0.00407500146,555.9354858,0.003495693672,555.9354858,0.003421224421,555.9354858,0.003858124139
555.0360718,0.003564042272,555.0360718,0.003741266439,555.0360718,0.00387700717,555.0360718,0.003122119466,555.0360718,0.003069429658,555.0360718,0.003529462265
553.9865112,0.003085619071,553.9865112,0.003123527393,553.9865112,0.003202509135,553.9865112,0.002993130824,553.9865112,0.003141674446,553.9865112,0.003337481525
552.9367065,0.00296154106,552.9367065,0.003261943813,552.9367065,0.003008326981,552.9367065,0.003033533227,552.9367065,0.002560068388,552.9367065,0.002828222699
552.0366821,0.00267223292,552.0366821,0.002565354342,552.0366821,0.002642723965,552.0366821,0.002391368384,552.0366821,0.002595222555,552.0366821,0.002701665508
550.9863281,0.002468498889,550.9863281,0.002409589011,550.9863281,0.002358417027,550.9863281,0.002181365853,550.9863281,0.00226756651,550.9863281,0.00217634486
549.935791,0.002008001786,549.935791,0.002027272712,549.935791,0.001911348547,549.935791,0.001643369673,549.935791,0.001856309711,549.935791,0.002092711395
549.0350952,0.001943979878,549.0350952,0.001974741463,549.0350952,0.001861925004,549.0350952,0.001553136273,549.0350952,0.001696432475,549.0350952,0.001834810828
547.9840698,0.001606006175,547.9840698,0.001685647876,547.9840698,0.001536873868,547.9840698,0.001187665737,547.9840698,0.001285092789,547.9840698,0.001830651541
546.9327393,0.001528223394,546.9327393,0.001512195799,546.9327393,0.001399759087,546.9327393,0.001013244735,546.9327393,0.001363013755,546.9327393,0.00135278271
546.0314331,0.001079958165,546.0314331,0.001187821501,546.0314331,0.001226291293,546.0314331,0.001277953153,546.0314331,0.0008209723746,546.0314331,0.001174895209
544.9796143,0.001183979912,544.9796143,0.001030577347,544.9796143,0.0009043612517,544.9796143,0.0009947454091,544.9796143,0.0007417742745,544.9796143,0.001031433581
543.9276123,0.0008859702502,543.9276123,0.0007147039869,543.9276123,0.001103963004,543.9276123,0.00077890791,543.9276123,0.0006202822551,543.9276123,0.0008453259943
543.0256348,0.0007133297622,543.0256348,0.0007341249147,543.0256348,0.001063038828,543.0256348,0.0006382731954,543.0256348,0.0007070550928,543.0256348,0.0009717065259
541.9730835,0.0006022920716,541.9730835,0.0006279814406,541.9730835,0.0007443413488,541.9730835,0.0003630470892,541.9730835,0.0003753792844,541.9730835,0.000529483601
541.0707397,0.0007303651073,541.0707397,0.001140738255,541.0707397,0.0006645868416,541.0707397,0.0005187020288,541.0707397,0.0005303389044,541.0707397,0.0007396739093
540.0177612,0.0007855466683,540.0177612,0.0007182043628,540.0177612,0.0007672903594,540.0177612,0.0005072728381,540.0177612,0.0005325418897,540.0177612,0.0009748198208
538.9644775,0.000736640126,538.9644775,0.001053230022,538.9644775,0.001212325529,538.9644775,0.0006223560777,538.9644775,0.0005679987953,538.9644775,0.0009201848879
538.0615234,0.0009472679812,538.0615234,0.0007325691404,538.0615234,0.00110297685,538.0615234,0.0005629962543,538.0615234,0.000759329414,538.0615234,0.00124882441
537.0078125,0.001111982157,537.0078125,0.001239400823,537.0078125,0.001016072929,537.0078125,0.001005927916,537.0078125,0.0008147480548,537.0078125,0.001247526379
535.9537964,0.001421392313,535.9537964,0.001395266387,535.9537964,0.001549265464,535.9537964,0.001341357594,535.9537964,0.001232833019,535.9537964,0.001938883564
535.0502319,0.001777650323,535.0502319,0.00173211447,535.0502319,0.001745993039,535.0502319,0.001501181978,535.0502319,0.001532431808,535.0502319,0.001907864469
533.9957886,0.001991644269,533.9957886,0.00211833301,533.9957886,0.002565614646,533.9957886,0.001951234532,533.9957886,0.00188321725,533.9957886,0.002045426052
532.9411011,0.002554548206,532.9411011,0.002603659872,532.9411011,0.003125326475,532.9411011,0.002620352898,532.9411011,0.002374866279,532.9411011,0.002666659188
532.0368652,0.003542641411,532.0368652,0.003144542454,532.0368652,0.003045394085,532.0368652,0.003387281904,532.0368652,0.002836482367,532.0368652,0.003246008651
530.9816895,0.004253479652,530.9816895,0.003773826873,530.9816895,0.003577744588,530.9816895,0.003931440413,530.9816895,0.00381712243,530.9816895,0.004002391826
529.9262695,0.004595509265,529.9262695,0.004771139473,529.9262695,0.004435797222,529.9262695,0.004517660011,529.9262695,0.00405467255,529.9262695,0.004380934406
529.0214233,0.005093880463,529.0214233,0.005189253949,529.0214233,0.005579818971,529.0214233,0.005060094874,529.0214233,0.004892332479,529.0214233,0.005173195153
527.9655762,0.005810071714,527.9655762,0.005943862256,527.9655762,0.005895290058,527.9655762,0.006199226249,527.9655762,0.005674879532,527.9655762,0.005944518372
527.0603027,0.006681330502,527.0603027,0.006753678899,527.0603027,0.006740901154,527.0603027,0.006722813472,527.0603027,0.006511468906,527.0603027,0.007190392818
526.0039673,0.007520441897,526.0039673,0.00743111223,526.0039673,0.00740059372,526.0039673,0.007240952924,526.0039673,0.007088027429,526.0039673,0.007742687128
524.9473877,0.00857302919,524.9473877,0.008416097611,524.9473877,0.008375164121,524.9473877,0.008205008693,524.9473877,0.00801973138,524.9473877,0.008706776425
524.0415649,0.009525867179,524.0415649,0.009443214163,524.0415649,0.009029522538,524.0415649,0.00897941459,524.0415649,0.00880524423,524.0415649,0.008895596489
522.9844971,0.0103159938,522.9844971,0.01026865281,522.9844971,0.01009778026,522.9844971,0.009993588552,522.9844971,0.009931927547,522.9844971,0.01015750319
521.9271851,0.01104236953,521.9271851,0.01112251263,521.9271851,0.01126743387,521.9271851,0.01109401695,521.9271851,0.01118771546,521.9271851,0.01147300005
521.020752,0.01267451327,521.020752,0.01223866921,521.020752,0.01206643414,521.020752,0.01241869666,521.020752,0.01199261006,521.020752,0.01210276596
519.9630127,0.0133400308,519.9630127,0.01292562578,519.9630127,0.01289706584,519.9630127,0.01281267498,519.9630127,0.01277836412,519.9630127,0.01365325786
519.0561523,0.01368189417,519.0561523,0.01343784668,519.0561523,0.01357229892,519.0561523,0.01338322274,519.0561523,0.0132341776,519.0561523,0.01349335816
517.9979858,0.0147019811,517.9979858,0.01469279639,517.9979858,0.01469426882,517.9979858,0.01456053928,517.9979858,0.01495622471,517.9979858,0.01507879328
516.9395142,0.01583050191,516.9395142,0.01585520059,516.9395142,0.01597866789,516.9395142,0.01533902436,516.9395142,0.01525072567,516.9395142,0.01523898263
516.0320435,0.0165663287,516.0320435,0.01592605934,516.0320435,0.01630288921,516.0320435,0.01630084589,516.0320435,0.01597080007,516.0320435,0.01640451886
514.9731445,0.01712133922,514.9731445,0.0177565515,514.9731445,0.01711264253,514.9731445,0.01761055365,514.9731445,0.01671905071,514.9731445,0.0172409378
514.0653687,0.01776868664,514.0653687,0.01754982211,514.0653687,0.01721901447,514.0653687,0.01719313301,514.0653687,0.01722817123,514.0653687,0.0177534502
513.0059814,0.01889128983,513.0059814,0.01837567985,513.0059814,0.01816617325,513.0059814,0.01820809394,513.0059814,0.01809456944,513.0059814,0.01835088991
511.9463806,0.01896389015,511.9463806,0.01892868429,511.9463806,0.01911047846,511.9463806,0.0188426543,511.9463806,0.0185551364,511.9463806,0.01912086643
511.0379639,0.01969700493,511.0379639,0.01966981031,511.0379639,0.01954185031,511.0379639,0.01937478781,511.0379639,0.01939730905,511.0379639,0.01947102137
509.9779358,0.019890422,509.9779358,0.02023661509,509.9779358,0.01986909471,509.9779358,0.01969275251,509.9779358,0.01977987215,509.9779358,0.02050812356
509.0691223,0.020806849,509.0691223,0.0206784457,509.0691223,0.02012114972,509.0691223,0.02007205039,509.0691223,0.02019493282,509.0691223,0.02049813792
508.0086365,0.02163822204,508.0086365,0.0218151398,508.0086365,0.02103839256,508.0086365,0.02099798992,508.0086365,0.02099092677,508.0086365,0.02103543095
506.9479065,0.02150505781,506.9479065,0.02151950076,506.9479065,0.02125964686,506.9479065,0.02105034702,506.9479065,0.02130254544,506.9479065,0.02149363235
506.0385132,0.02248171158,506.0385132,0.02196754143,506.0385132,0.02145449445,506.0385132,0.02191447467,506.0385132,0.02158089727,506.0385132,0.0220426172
504.9773254,0.02195128426,504.9773254,0.02263805456,504.9773254,0.02187772095,504.9773254,0.02182126418,504.9773254,0.02233332582,504.9773254,0.02192471176
504.0675659,0.02254820615,504.0675659,0.02270201035,504.0675659,0.02218697965,504.0675659,0.02235850692,504.0675659,0.02230367623,504.0675659,0.02215567976
503.0059509,0.02255218662,503.0059509,0.02269521914,503.0059509,0.02256882004,503.0059509,0.02241097391,503.0059509,0.02207170427,503.0059509,0.02243923955
501.9440918,0.0228965804,501.9440918,0.0230727829,501.9440918,0.02250134014,501.9440918,0.02229089662,501.9440918,0.02248637192,501.9440918,0.02278258838
501.0337524,0.02279399149,501.0337524,0.02307267301,501.0337524,0.02267061733,501.0337524,0.02268340997,501.0337524,0.02250512876,501.0337524,0.02272893116
499.9714355,0.02290637605,499.9714355,0.02273564227,499.9714355,0.02297812141,499.9714355,0.02304736897,499.9714355,0.02267667279,499.9714355,0.02306259982
499.06073,0.0233926475,499.06073,0.02339319326,499.06073,0.02305067144,499.06073,0.02293336578,499.06073,0.02348250709,499.06073,0.02313412726
497.9979858,0.02308119088,497.9979858,0.02357842587,497.9979858,0.02320296131,497.9979858,0.02285316773,497.9979858,0.02281647176,497.9979858,0.02305940725
496.9350281,0.02302774228,496.9350281,0.02309202775,496.9350281,0.02314919792,496.9350281,0.02287756093,496.9350281,0.02294316143,496.9350281,0.02316298522
496.0237122,0.02316050231,496.0237122,0.02279740199,496.0237122,0.02333771251,496.0237122,0.02382096648,496.0237122,0.02366575412,496.0237122,0.02325424552
494.9603271,0.0231025666,494.9603271,0.02346540242,494.9603271,0.02290959656,494.9603271,0.02296504937,494.9603271,0.0229842905,494.9603271,0.02301084809
494.048645,0.022808915,494.048645,0.02301477827,494.048645,0.02285245806,494.048645,0.02261403017,494.048645,0.02271772176,494.048645,0.02303186432
492.9848022,0.02300178632,492.9848022,0.02253770828,492.9848022,0.02242296748,492.9848022,0.02249844931,492.9848022,0.02226394787,492.9848022,0.02252546698
492.0727539,0.02230997197,492.0727539,0.02265070938,492.0727539,0.0224737227,492.0727539,0.02255504951,492.0727539,0.02220114693,492.0727539,0.02228056826
491.0084839,0.02247282304,491.0084839,0.02290583029,491.0084839,0.02260759473,491.0084839,0.02244253829,491.0084839,0.02231659368,491.0084839,0.02245139703
489.9440002,0.02221035585,489.9440002,0.02208379656,489.9440002,0.02216278948,489.9440002,0.0220698528,489.9440002,0.02191474661,489.9440002,0.0222678706
489.0313721,0.02197127044,489.0313721,0.02204283513,489.0313721,0.02177765965,489.0313721,0.02193867788,489.0313721,0.02167149819,489.0313721,0.0223579891
487.9664612,0.02206538618,487.9664612,0.02197108045,487.9664612,0.0214617569,487.9664612,0.02180909738,487.9664612,0.02183220536,487.9664612,0.02165884525
487.0534668,0.02117867023,487.0534668,0.02179423533,487.0534668,0.02123621292,487.0534668,0.02138849348,487.0534668,0.0210668128,487.0534668,0.02135689557
485.9880981,0.02129702643,485.9880981,0.02088976651,485.9880981,0.02089109644,485.9880981,0.02107254788,485.9880981,0.02058397979,485.9880981,0.0214890372
485.0747681,0.02062583528,485.0747681,0.02087433822,485.0747681,0.02086021565,485.0747681,0.02069145069,485.0747681,0.02050399967,485.0747681,0.02075107396
484.0089722,0.02050326578,484.0089722,0.02056967653,484.0089722,0.02049121819,484.0089722,0.02033040859,484.0089722,0.02032983862,484.0089722,0.02052883059
482.9429626,0.02053398639,482.9429626,0.02043184638,482.9429626,0.02062963694,482.9429626,0.02042207867,482.9429626,0.02035718411,482.9429626,0.02050584368
482.0290833,0.01985532977,482.0290833,0.01990925521,482.0290833,0.02054318786,482.0290833,0.01953313127,482.0290833,0.01964919828,482.0290833,0.01967509091
480.9626465,0.0194193162,480.9626465,0.01957028173,480.9626465,0.01962363161,480.9626465,0.01958628744,480.9626465,0.01960093714,480.9626465,0.01960635372
480.0483704,0.01957499422,480.0483704,0.01988708787,480.0483704,0.01940236986,480.0483704,0.0193589814,480.0483704,0.01920067519,480.0483704,0.01917948946
478.9815063,0.0193254482,478.9815063,0.0192295704,478.9815063,0.01911488734,478.9815063,0.01911459118,478.9815063,0.01907036453,478.9815063,0.0193084795
478.0668945,0.01936128177,478.0668945,0.01919399202,478.0668945,0.01918985136,478.0668945,0.01910136268,478.0668945,0.01910774596,478.0668945,0.01894331165
476.9996033,0.01967839524,476.9996033,0.01923760772,476.9996033,0.01918113977,476.9996033,0.01900504902,476.9996033,0.01938125677,476.9996033,0.0194861833
475.9321289,0.01985440776,475.9321289,0.01951003633,475.9321289,0.01937175728,475.9321289,0.01924253255,475.9321289,0.01948975585,475.9321289,0.019280985
475.0169373,0.01945783757,475.0169373,0.01970236748,475.0169373,0.01963717304,475.0169373,0.01974451728,475.0169373,0.0193984732,475.0169373,0.01942638122
473.9490356,0.01980758831,473.9490356,0.01958192699,473.9490356,0.02032351866,473.9490356,0.01953516155,473.9490356,0.01957415417,473.9490356,0.0198291
473.0334778,0.0201624725,473.0334778,0.02016811445,473.0334778,0.02029791288,473.0334778,0.02002436668,473.0334778,0.01980008185,473.0334778,0.02025041915
471.9651489,0.02096286416,471.9651489,0.02105135284,471.9651489,0.02131222375,471.9651489,0.02067849971,471.9651489,0.02074721828,471.9651489,0.02100904845
471.0492859,0.02166336216,471.0492859,0.02126067877,471.0492859,0.0217561312,471.0492859,0.02137016505,471.0492859,0.02129033767,471.0492859,0.02164543234
469.9805298,0.02239538357,469.9805298,0.02191256918,469.9805298,0.02240745723,469.9805298,0.02217401192,469.9805298,0.02202107571,469.9805298,0.02214464732
469.0643005,0.02285404131,469.0643005,0.02307504788,469.0643005,0.02280062065,469.0643005,0.0227130577,469.0643005,0.02312410623,469.0643005,0.02348354459
467.9951477,0.0239274893,467.9951477,0.02371526137,467.9951477,0.02368051559,467.9951477,0.02360958233,467.9951477,0.02409593016,467.9951477,0.02423238195
466.9257507,0.02533216029,466.9257507,0.02458364516,466.9257507,0.02479818836,466.9257507,0.0244276654,466.9257507,0.02444579452,466.9257507,0.02468210831
466.0089722,0.02591231652,466.0089722,0.02601058595,466.0089722,0.02535666525,466.0089722,0.02515287139,466.0089722,0.02518935502,466.0089722,0.02559100464
464.9391785,0.02634654008,464.9391785,0.0263740737,464.9391785,0.0263179075,464.9391785,0.02668591775,464.9391785,0.02624580078,464.9391785,0.02633446455
464.0220642,0.02713915706,464.0220642,0.02709755115,464.0220642,0.02692006715,464.0220642,0.02704300173,464.0220642,0.0276417248,464.0220642,0.02707049623
462.9518738,0.0279505346,462.9518738,0.0279567726,462.9518738,0.02782618441,462.9518738,0.02841031924,462.9518738,0.02774295397,462.9518738,0.02791508846
462.0343933,0.02841305546,462.0343933,0.02830691822,462.0343933,0.02913349122,462.0343933,0.02836914361,462.0343933,0.02833465859,462.0343933,0.0284793321
460.9637756,0.02933268063,460.9637756,0.02919398062,460.9637756,0.02966309339,460.9637756,0.0299841892,460.9637756,0.02879877761,460.9637756,0.02898948453
460.0459595,0.02991881967,460.0459595,0.0297006499,460.0459595,0.03054426983,460.0459595,0.02954445966,460.0459595,0.03025509231,460.0459595,0.02975132316
458.9749451,0.03143396974,458.9749451,0.03109825961,458.9749451,0.03075199947,458.9749451,0.03068054095,458.9749451,0.03041620366,458.9749451,0.03058365174
458.0567932,0.03120989352,458.0567932,0.03120394051,458.0567932,0.03102490865,458.0567932,0.03078989871,458.0567932,0.03081577085,458.0567932,0.03096611053
456.9853821,0.0316648744,456.9853821,0.03218352422,456.9853821,0.03147285059,456.9853821,0.03151521087,456.9853821,0.03126302361,456.9853821,0.03152392432
456.066864,0.03254872933,456.066864,0.03252406418,456.066864,0.03190698847,456.066864,0.03193821758,456.066864,0.03181010485,456.066864,0.03238905594
454.9950562,0.03249583393,454.9950562,0.0329352133,454.9950562,0.03274120018,454.9950562,0.03220588341,454.9950562,0.03212992102,454.9950562,0.03287908435
454.0762024,0.03290323913,454.0762024,0.03320874274,454.0762024,0.03293800354,454.0762024,0.03317255899,454.0762024,0.03265465423,454.0762024,0.033387281
453.0039978,0.03308248892,453.0039978,0.0330979079,453.0039978,0.03321927786,453.0039978,0.03292194754,453.0039978,0.03296171501,453.0039978,0.03348365054
451.9315796,0.03404857218,451.9315796,0.0342217423,451.9315796,0.03340804949,451.9315796,0.0331601277,451.9315796,0.03334322572,451.9315796,0.0334988609
451.012207,0.0343134217,451.012207,0.03441487253,451.012207,0.03356479853,451.012207,0.03384978324,451.012207,0.03342465684,451.012207,0.0342072621
449.9393921,0.03397441283,449.9393921,0.0341912955,449.9393921,0.03399834782,449.9393921,0.03335681185,449.9393921,0.03366851062,449.9393921,0.03394754231
449.0196838,0.03395185247,449.0196838,0.03453532234,449.0196838,0.03412806243,449.0196838,0.03427361697,449.0196838,0.03373061493,449.0196838,0.03402987123
447.9464722,0.03433093056,447.9464722,0.03422459587,447.9464722,0.03421191126,447.9464722,0.03421485052,447.9464722,0.03403824195,447.9464722,0.03427081555
447.0263977,0.03439850733,447.0263977,0.03448254615,447.0263977,0.03430417553,447.0263977,0.03409418091,447.0263977,0.03404893726,447.0263977,0.03435029089
445.9528198,0.03518461064,445.9528198,0.03453888372,445.9528198,0.03526537865,445.9528198,0.03432191163,445.9528198,0.03435460478,445.9528198,0.03480955586
445.0324097,0.0349592939,445.0324097,0.0350480713,445.0324097,0.03533262387,445.0324097,0.03459163383,445.0324097,0.03449418023,445.0324097,0.03529553115
443.9584351,0.03528070822,443.9584351,0.03479211032,443.9584351,0.0353436321,443.9584351,0.03457627445,443.9584351,0.03456419334,443.9584351,0.03496361151
443.0377197,0.03571439907,443.0377197,0.03506235406,443.0377197,0.03529505432,443.0377197,0.03476112336,443.0377197,0.0345934853,443.0377197,0.03560486063
441.9633179,0.03491061926,441.9633179,0.03544796258,441.9633179,0.03537067398,441.9633179,0.03485906124,441.9633179,0.03503457084,441.9633179,0.03512370214
441.0422668,0.03492806852,441.0422668,0.03471129388,441.0422668,0.03538901359,441.0422668,0.03484733403,441.0422668,0.03478122875,441.0422668,0.03550130501
439.9674988,0.0349277854,439.9674988,0.03493016958,439.9674988,0.03506442904,439.9674988,0.03485875204,439.9674988,0.03495704755,439.9674988,0.03517153114
439.0461121,0.0352771394,439.0461121,0.03500418365,439.0461121,0.03499416634,439.0461121,0.03459508345,439.0461121,0.03479281068,439.0461121,0.0352621749
437.9709778,0.03564667329,437.9709778,0.03507478535,437.9709778,0.03491031006,437.9709778,0.03465280682,437.9709778,0.03472298384,437.9709778,0.03491533175
437.0492554,0.03465566412,437.0492554,0.03528859466,437.0492554,0.03462653607,437.0492554,0.03449235857,437.0492554,0.03460727632,437.0492554,0.03483210504
435.9737244,0.03454462811,435.9737244,0.0344430916,435.9737244,0.03442328051,435.9737244,0.03433076292,435.9737244,0.03434384614,435.9737244,0.03452470154
435.0516663,0.03433922306,435.0516663,0.03421501815,435.0516663,0.03426733986,435.0516663,0.03406024724,435.0516663,0.03411112353,435.0516663,0.03437273204
433.975769,0.03490680456,433.975769,0.03501975536,433.975769,0.03458252549,433.975769,0.0339287892,433.975769,0.03398060054,433.975769,0.03410454094
433.0533752,0.0341103673,433.0533752,0.03431190923,433.0533752,0.0340772979,433.0533752,0.03388148919,433.0533752,0.03384306654,433.0533752,0.03443098441
431.9770813,0.03434661776,431.9770813,0.03386604041,431.9770813,0.03394997865,431.9770813,0.03365989402,431.9770813,0.03381760046,431.9770813,0.03421384096
431.0543823,0.03424207494,431.0543823,0.03376029804,431.0543823,0.03360666707,431.0543823,0.03359382972,431.0543823,0.03381329402,431.0543823,0.0348430723
429.9777222,0.03371651471,429.9777222,0.03376060724,429.9777222,0.03367544711,429.9777222,0.03366355971,429.9777222,0.03363639861,429.9777222,0.03424904868
429.0546875,0.03348432109,429.0546875,0.03356513381,429.0546875,0.03355400637,429.0546875,0.03398897126,429.0546875,0.03326723352,429.0546875,0.03415858746
427.9776611,0.0339329876,427.9776611,0.03372969106,427.9776611,0.03327223659,427.9776611,0.03379026428,427.9776611,0.0333173722,427.9776611,0.03362213448
427.0543213,0.03301500157,427.0543213,0.03338445723,427.0543213,0.03327159211,427.0543213,0.03317820281,427.0543213,0.03313799948,427.0543213,0.03339057788
425.9768982,0.0337176621,425.9768982,0.03367158771,425.9768982,0.03344000503,425.9768982,0.03315020725,425.9768982,0.03341683,425.9768982,0.03348418325
425.0532227,0.03337369487,425.0532227,0.03374812752,425.0532227,0.03319426998,425.0532227,0.03321030736,425.0532227,0.0331233032,425.0532227,0.03349726647
423.9754333,0.03377526626,423.9754333,0.03301022574,423.9754333,0.03281255439,423.9754333,0.03282003477,423.9754333,0.03258826584,423.9754333,0.03375333175
423.0514526,0.03311925009,423.0514526,0.03373397142,423.0514526,0.03302042186,423.0514526,0.03322928399,423.0514526,0.0329686664,423.0514526,0.03340564668
421.9732666,0.03296246752,421.9732666,0.03344674408,421.9732666,0.03284943476,421.9732666,0.03315738589,421.9732666,0.03274003044,421.9732666,0.03318574652
421.0489807,0.03266168386,421.0489807,0.03330660984,421.0489807,0.03219712898,421.0489807,0.03244704381,421.0489807,0.03245956823,421.0489807,0.03262964636
419.9704285,0.03289502859,419.9704285,0.03248088062,419.9704285,0.03242503479,419.9704285,0.0324399285,419.9704285,0.03255888447,419.9704285,0.03262964636
419.0458069,0.03239181638,419.0458069,0.03244280443,419.0458069,0.03209811822,419.0458069,0.03227892891,419.0458069,0.03299855068,419.0458069,0.03324124217
417.9669189,0.03217053413,417.9669189,0.03198831528,417.9669189,0.03234529868,417.9669189,0.03203345835,417.9669189,0.03207439929,417.9669189,0.03246768564
417.0419922,0.03209488466,417.0419922,0.03204898164,417.0419922,0.03189779446,417.0419922,0.03197042644,417.0419922,0.03195694089,417.0419922,0.03232722729
415.9627075,0.03180328012,415.9627075,0.03258670494,415.9627075,0.03161801398,415.9627075,0.03161620721,415.9627075,0.03243630379,415.9627075,0.03221366182
415.0374756,0.03185144067,415.0374756,0.03161389381,415.0374756,0.03151560202,415.0374756,0.03206104785,415.0374756,0.03150193393,415.0374756,0.03221591935
413.9578247,0.03145453706,413.9578247,0.03132581338,413.9578247,0.0314405933,413.9578247,0.03133749962,413.9578247,0.03123423085,413.9578247,0.03186238557
413.0322876,0.0311634168,413.0322876,0.03178846091,413.0322876,0.03119982406,413.0322876,0.03109333664,413.0322876,0.03106019273,413.0322876,0.03163794801
411.952301,0.0307947062,411.952301,0.03114625812,411.952301,0.03085523285,411.952301,0.03064564988,411.952301,0.03089169785,411.952301,0.03182561696
411.0264282,0.03068787418,411.0264282,0.03060298413,411.0264282,0.03059051186,411.0264282,0.03031479381,411.0264282,0.03073335439,411.0264282,0.03094801307
409.9460754,0.03084561788,409.9460754,0.03052491322,409.9460754,0.03054571338,409.9460754,0.03035707027,409.9460754,0.03046801314,409.9460754,0.03108110279
409.0198975,0.03015907481,409.0198975,0.03056801483,409.0198975,0.03047606722,409.0198975,0.03021671064,409.0198975,0.03053943627,409.0198975,0.03058584593
407.9391785,0.02989300154,407.9391785,0.03039374202,407.9391785,0.02981006913,407.9391785,0.02992034517,407.9391785,0.03045510314,407.9391785,0.03029394895
407.0126953,0.02952459268,407.0126953,0.02967609279,407.0126953,0.02952788956,407.0126953,0.02965890989,407.0126953,0.02979312837,407.0126953,0.03011043556
405.9316406,0.02931988612,405.9316406,0.0296589639,405.9316406,0.02924259938,405.9316406,0.02963016927,405.9316406,0.02918811142,405.9316406,0.02960520051
405.0048523,0.02897664532,405.0048523,0.02889969572,405.0048523,0.02939746343,405.0048523,0.0288803298,405.0048523,0.02881141938,405.0048523,0.03006182984
403.9234009,0.02902651392,403.9234009,0.02914290316,403.9234009,0.0285365507,403.9234009,0.02848005109,403.9234009,0.02871215343,403.9234009,0.02916369401
402.9963379,0.02839744091,402.9963379,0.0285389293,402.9963379,0.02819370665,402.9963379,0.02805664018,402.9963379,0.02852549404,402.9963379,0.02874921262
402.0690918,0.02808223851,402.0690918,0.02814807743,402.0690918,0.02787514776,402.0690918,0.02778362855,402.0690918,0.02877214178,402.0690918,0.0285685081
400.9871521,0.02745533176,400.9871521,0.02766305022,400.9871521,0.02756716311,400.9871521,0.02761626244,400.9871521,0.02781445533,400.9871521,0.02879269235
400.0596313,0.02786703221,400.0596313,0.02750359103,400.0596313,0.02747835778,400.0596313,0.02722676471,400.0596313,0.02756517753,400.0596313,0.02807729505
398.9773254,0.02731604315,398.9773254,0.02717277594,398.9773254,0.02724597417,398.9773254,0.02716302127,398.9773254,0.0271301195,398.9773254,0.02762150392
398.0494995,0.02688924968,398.0494995,0.02688159235,398.0494995,0.02687110193,398.0494995,0.0267335698,398.0494995,0.02713833191,398.0494995,0.02830760926
396.9668579,0.0268466752,396.9668579,0.02674075402,396.9668579,0.02677280083,396.9668579,0.02677582949,396.9668579,0.02702798694,396.9668579,0.02744581737
396.0387268,0.02714880183,396.0387268,0.02661330998,396.0387268,0.02637665905,396.0387268,0.02622883394,396.0387268,0.02653925493,396.0387268,0.02721182629
394.955719,0.02612463199,394.955719,0.02623944916,394.955719,0.02633900382,394.955719,0.02628080733,394.955719,0.02646039799,394.955719,0.02727276646
394.0273132,0.02622399479,394.0273132,0.02665360458,394.0273132,0.02626012824,394.0273132,0.02614852227,394.0273132,0.02644876018,394.0273132,0.02772085182
392.9439697,0.02602922171,392.9439697,0.02678830177,392.9439697,0.02612762898,392.9439697,0.02595312148,392.9439697,0.02640909143,392.9439697,0.02721596137
392.0152283,0.0257843174,392.0152283,0.02625372075,392.0152283,0.02646414004,392.0152283,0.02595422231,392.0152283,0.02623337135,392.0152283,0.02787959017
390.9315491,0.02609521709,390.9315491,0.02668129466,390.9315491,0.02612677589,390.9315491,0.02619578317,390.9315491,0.02642730251,390.9315491,0.02758120373
390.002533,0.02594888955,390.002533,0.02649525739,390.002533,0.02617651038,390.002533,0.02611652203,390.002533,0.02665467747,390.002533,0.0274994541
389.0733948,0.02681575343,389.0733948,0.0266175475,389.0733948,0.02638078481,389.0733948,0.02610390447,389.0733948,0.02632225305,389.0733948,0.02768051438
387.9892273,0.02611828037,387.9892273,0.02633806877,387.9892273,0.02608468942,387.9892273,0.02616523765,387.9892273,0.02659165114,387.9892273,0.02835693024
387.0597839,0.02628644556,387.0597839,0.02693719789,387.0597839,0.02698796056,387.0597839,0.02644127794,387.0597839,0.02705344185,387.0597839,0.02803305909
385.9752502,0.02654525451,385.9752502,0.0269675497,385.9752502,0.02664779685,385.9752502,0.02637451328,385.9752502,0.02722704038,385.9752502,0.02854094654
385.0455017,0.02744129486,385.0455017,0.02691376023,385.0455017,0.02686856687,385.0455017,0.02687077038,385.0455017,0.027951831,385.0455017,0.02867750265
383.9606628,0.02758911997,383.9606628,0.02711490914,383.9606628,0.02763822116,383.9606628,0.02716191858,383.9606628,0.02758500911,383.9606628,0.02881332859
383.0306396,0.02711457945,383.0306396,0.02729473449,383.0306396,0.02734780125,383.0306396,0.0275720451,383.0306396,0.02846424095,383.0306396,0.02929263562
381.9454346,0.02760078758,381.9454346,0.02767883055,381.9454346,0.02761540748,381.9454346,0.02768622525,381.9454346,0.02889604494,381.9454346,0.02960112691
381.0151367,0.02783137187,381.0151367,0.02805757895,381.0151367,0.02779607475,381.0151367,0.02806917578,381.0151367,0.02904621884,381.0151367,0.03043580428
379.9295959,0.02896546572,379.9295959,0.0284205731,379.9295959,0.02854429185,379.9295959,0.02845694311,379.9295959,0.02920624614,379.9295959,0.03061153926
378.9990234,0.028822124,378.9990234,0.02843610384,378.9990234,0.02876744047,378.9990234,0.02904203907,378.9990234,0.02948478051,378.9990234,0.03087110259
378.0682678,0.02938777022,378.0682678,0.02996216714,378.0682678,0.02926098555,378.0682678,0.02915298007,378.0682678,0.02995379083,378.0682678,0.03118135594
376.9822693,0.03046112694,376.9822693,0.03074658103,376.9822693,0.0301178433,376.9822693,0.03002779372,376.9822693,0.03149430826,376.9822693,0.03233313933
376.0512695,0.03130611405,376.0512695,0.0315181613,376.0512695,0.03066326119,376.0512695,0.03095073812,376.0512695,0.0313896127,376.0512695,0.03309623152
374.9649048,0.03095190413,374.9649048,0.03184305504,374.9649048,0.03080340475,374.9649048,0.03115746565,374.9649048,0.03194663301,374.9649048,0.03371248394
374.0336304,0.03250481561,374.0336304,0.03216760606,374.0336304,0.03184247017,374.0336304,0.03201013431,374.0336304,0.03277017549,374.0336304,0.03414897993
372.9469604,0.03309737891,372.9469604,0.0325477533,372.9469604,0.03248015419,372.9469604,0.03261148185,372.9469604,0.0334867537,372.9469604,0.03500945866
372.0153809,0.03311436251,372.0153809,0.03290815279,372.0153809,0.03340430558,372.0153809,0.03334887326,372.0153809,0.03393727168,372.0153809,0.03612230346
370.9283752,0.03395294398,370.9283752,0.03401170298,370.9283752,0.03396699578,370.9283752,0.03421465307,370.9283752,0.03512187675,370.9283752,0.03679780662
369.996521,0.03427285701,369.996521,0.03393337876,369.996521,0.03522991762,369.996521,0.03507295996,369.996521,0.03580128029,369.996521,0.03797327355
369.0645447,0.0348065272,369.0645447,0.03490969166,369.0645447,0.03507088497,369.0645447,0.03539254889,369.0645447,0.03655010834,369.0645447,0.03816961125
367.9770813,0.03531105816,367.9770813,0.03560654446,367.9770813,0.03576875478,367.9770813,0.03610286489,367.9770813,0.0370079577,367.9770813,0.03897299245
367.0448303,0.03568458185,367.0448303,0.03599736467,367.0448303,0.03625043109,367.0448303,0.03642400354,367.0448303,0.03763758391,367.0448303,0.03942612186
365.9570313,0.03636925295,365.9570313,0.03685852885,365.9570313,0.03667684272,365.9570313,0.03749120981,365.9570313,0.03862178698,365.9570313,0.04097714275
365.0245056,0.03701207414,365.0245056,0.03733320534,365.0245056,0.03762792796,365.0245056,0.03771273419,365.0245056,0.03854992613,365.0245056,0.04099572077
363.9363708,0.03739583492,363.9363708,0.03751832992,363.9363708,0.03776751459,363.9363708,0.03825293854,363.9363708,0.0390682891,363.9363708,0.04178825021
363.0035706,0.03763876855,363.0035706,0.03785929829,363.0035706,0.03801706806,363.0035706,0.03841175884,363.0035706,0.03952358663,363.0035706,0.04190067202
362.0706482,0.03839366138,362.0706482,0.03827925771,362.0706482,0.03890931606,362.0706482,0.03892366961,362.0706482,0.03972879052,362.0706482,0.04236833751
360.9820557,0.03838803247,360.9820557,0.03869595006,360.9820557,0.03887712583,360.9820557,0.03914043307,360.9820557,0.04085264727,360.9820557,0.04274098203
360.0488586,0.0389447622,360.0488586,0.03897075728,360.0488586,0.03941070288,360.0488586,0.03943216056,360.0488586,0.04080390558,360.0488586,0.04304042831
358.9599609,0.03869249672,358.9599609,0.038574595,358.9599609,0.0393877998,358.9599609,0.03972309083,358.9599609,0.04088336229,358.9599609,0.04292265326
358.0264893,0.03898754716,358.0264893,0.03985968977,358.0264893,0.04012475908,358.0264893,0.03992208838,358.0264893,0.04084326327,358.0264893,0.04364056513
356.9372864,0.03965085,356.9372864,0.03973982483,356.9372864,0.03968726471,356.9372864,0.0402796343,356.9372864,0.04145984724,356.9372864,0.04383770376
356.00354,0.03959773481,356.00354,0.03946011141,356.00354,0.04016090184,356.00354,0.04009619728,356.00354,0.04157278314,356.00354,0.04387478903
355.0696716,0.03999304026,355.0696716,0.04021559283,355.0696716,0.04029292613,355.0696716,0.04070365056,355.0696716,0.0416476503,355.0696716,0.0445584543
353.980011,0.04037183523,353.980011,0.04007919133,353.980011,0.04021479934,353.980011,0.0408070311,353.980011,0.04192373529,353.980011,0.04450352862
353.0458679,0.03998693824,353.0458679,0.0402074717,353.0458679,0.04032130167,353.0458679,0.04121659324,353.0458679,0.04197784886,353.0458679,0.04486483708
351.9559021,0.03986428678,351.9559021,0.04013063386,351.9559021,0.04044507816,351.9559021,0.04103096947,351.9559021,0.04220598191,351.9559021,0.0449167639
351.0215149,0.03998458385,351.0215149,0.03992958367,351.0215149,0.04023913667,351.0215149,0.04086988047,351.0215149,0.04211479053,351.0215149,0.04461622238
349.9312134,0.04014057294,349.9312134,0.04043348506,349.9312134,0.04054916278,349.9312134,0.04105629027,349.9312134,0.04245327786,349.9312134,0.04482913017
348.9965515,0.04010605067,348.9965515,0.0400496684,348.9965515,0.04017379507,348.9965515,0.04073273391,348.9965515,0.04230070487,348.9965515,0.04514889047
348.0617676,0.04014687613,348.0617676,0.04019032046,348.0617676,0.0400855504,348.0617676,0.04113488272,348.0617676,0.04201713949,348.0617676,0.04532884061
346.9710388,0.03985665366,346.9710388,0.04005443677,346.9710388,0.0403954424,346.9710388,0.04090955853,346.9710388,0.04230067879,346.9710388,0.04485731572
346.0360107,0.039659217,346.0360107,0.04002999887,346.0360107,0.04016496241,346.0360107,0.04097458348,346.0360107,0.04194169492,346.0360107,0.04512375966
344.9449768,0.03962299973,344.9449768,0.04003655538,344.9449768,0.04053753987,344.9449768,0.04077407718,344.9449768,0.04215526208,344.9449768,0.04529318213
344.0096741,0.03985574841,344.0096741,0.04001577571,344.0096741,0.04024418816,344.0096741,0.04109365121,344.0096741,0.04216039926,344.0096741,0.04573728144
343.0742493,0.03989427909,343.0742493,0.03986817598,343.0742493,0.03980277479,343.0742493,0.04081658646,343.0742493,0.04194340482,343.0742493,0.04562633857
341.9827881,0.03927809745,341.9827881,0.03997536004,341.9827881,0.03998994827,341.9827881,0.04069722444,341.9827881,0.04217123613,341.9827881,0.04565635696
341.0470886,0.03934375569,341.0470886,0.03973503411,341.0470886,0.03995214403,341.0470886,0.04080558196,341.0470886,0.04193240032,341.0470886,0.04563030601
339.9553223,0.03926679119,339.9553223,0.03944914043,339.9553223,0.03984195739,339.9553223,0.04063042253,339.9553223,0.04221442714,339.9553223,0.04600849748
339.0194092,0.03918201849,339.0194092,0.03940438107,339.0194092,0.03996954113,339.0194092,0.04072861373,339.0194092,0.04206296802,339.0194092,0.04616928473
337.9273376,0.0391786769,337.9273376,0.03959169239,337.9273376,0.03977571055,337.9273376,0.04040998966,337.9273376,0.04222124442,337.9273376,0.04668725654
336.9911499,0.03913105652,336.9911499,0.03914714605,336.9911499,0.03988352418,336.9911499,0.04076264426,336.9911499,0.04200499505,336.9911499,0.04609423503
336.0548401,0.03879565746,336.0548401,0.03879639134,336.0548401,0.03920145333,336.0548401,0.04016956314,336.0548401,0.04195076227,336.0548401,0.04657739401
334.9623413,0.0384525694,334.9623413,0.03859844431,334.9623413,0.03880010173,334.9623413,0.04010718316,334.9623413,0.04172700644,334.9623413,0.04678146169
334.0257874,0.03811085224,334.0257874,0.03860732913,334.0257874,0.03910975531,334.0257874,0.03986479715,334.0257874,0.0419887118,334.0257874,0.04705110937
332.9329834,0.03793155029,332.9329834,0.03839402646,332.9329834,0.0390220955,332.9329834,0.04002335668,332.9329834,0.04225376993,332.9329834,0.04729762673
331.9961853,0.03821893409,331.9961853,0.03812520951,331.9961853,0.03881382942,331.9961853,0.04011840001,331.9961853,0.04229645431,331.9961853,0.04755242914
331.0592651,0.03765725717,331.0592651,0.03803238273,331.0592651,0.03891792148,331.0592651,0.03963479772,331.0592651,0.04245556146,331.0592651,0.04788720608
329.9660339,0.03754556552,329.9660339,0.03797954693,329.9660339,0.03851456568,329.9660339,0.04012535512,329.9660339,0.04248207808,329.9660339,0.04845046625
329.0288696,0.03753723949,329.0288696,0.03738370538,329.0288696,0.03845172003,329.0288696,0.0396360755,329.0288696,0.04294019938,329.0288696,0.04912818968
327.9353638,0.03708181903,327.9353638,0.03764472529,327.9353638,0.03853657469,327.9353638,0.03959569335,327.9353638,0.04233745858,327.9353638,0.04935903847
326.9979248,0.03729879111,326.9979248,0.03752736002,326.9979248,0.03855982795,326.9979248,0.03960331902,326.9979248,0.04282053933,326.9979248,0.04964593053
326.0603943,0.03710006177,326.0603943,0.0375254415,326.0603943,0.03831276298,326.0603943,0.03970175982,326.0603943,0.04298260808,326.0603943,0.05053787306
324.9664917,0.03715509921,324.9664917,0.03748243302,324.9664917,0.03836080059,324.9664917,0.03974518925,324.9664917,0.0430592373,324.9664917,0.05126867071
324.028717,0.03727741167,324.028717,0.03769949451,324.028717,0.03865882382,324.028717,0.04007436708,324.028717,0.04397666454,324.028717,0.05183814839
322.9344788,0.03735676408,322.9344788,0.03763676435,322.9344788,0.03866038099,322.9344788,0.04052040353,322.9344788,0.04416260868,322.9344788,0.05303664133
321.99646,0.03706789017,321.99646,0.03744007647,321.99646,0.03883276507,321.99646,0.04056596011,321.99646,0.04479033127,321.99646,0.05353959277
321.0583496,0.03716401011,321.0583496,0.03770418093,321.0583496,0.03886673599,321.0583496,0.04066007212,321.0583496,0.04506060854,321.0583496,0.05461123586
319.9637146,0.03716829792,319.9637146,0.03783031926,319.9637146,0.03889461979,319.9637146,0.04078562185,319.9637146,0.04564410821,319.9637146,0.05567876622
319.0253601,0.03752456605,319.0253601,0.03820364177,319.0253601,0.03912663832,319.0253601,0.04124716297,319.0253601,0.04608019069,319.0253601,0.05702907965
317.9304504,0.03768563271,317.9304504,0.03815019131,317.9304504,0.03955242038,317.9304504,0.04167371988,317.9304504,0.04749464244,317.9304504,0.05816652626
316.9918518,0.03816686943,316.9918518,0.0384910889,316.9918518,0.03974144161,316.9918518,0.04211901128,316.9918518,0.04730175436,316.9918518,0.05896033347
316.0531311,0.03792607039,316.0531311,0.03855230287,316.0531311,0.03985849768,316.0531311,0.04269831255,316.0531311,0.04835560918,316.0531311,0.0606627278
314.9577942,0.03847468644,314.9577942,0.03891761228,314.9577942,0.04047073424,314.9577942,0.04358836263,314.9577942,0.04953316972,314.9577942,0.06222583726
314.0188599,0.03852296993,314.0188599,0.03913233057,314.0188599,0.04059352726,314.0188599,0.04378696531,314.0188599,0.05032351613,314.0188599,0.06395403296
312.9232788,0.0388286598,312.9232788,0.03946141526,312.9232788,0.04100775346,312.9232788,0.04451259226,312.9232788,0.05154330283,312.9232788,0.06609567255
311.9840698,0.03845123947,311.9840698,0.03972056508,311.9840698,0.04130751267,311.9840698,0.04503995925,311.9840698,0.05230152234,311.9840698,0.0676413402
311.0447693,0.03887664527,311.0447693,0.03981991112,311.0447693,0.04201668501,311.0447693,0.04565589875,311.0447693,0.05383520946,311.0447693,0.07023606449
309.9487915,0.03935240209,309.9487915,0.0400653109,309.9487915,0.04223342985,309.9487915,0.04664200544,309.9487915,0.05533587188,309.9487915,0.07418557256
309.0092468,0.03962192312,309.0092468,0.04053154588,309.0092468,0.04301636294,309.0092468,0.0476577431,309.0092468,0.05744805932,309.0092468,0.07813329995
308.0696106,0.03977318481,308.0696106,0.04071195051,308.0696106,0.04371209815,308.0696106,0.04881021008,308.0696106,0.05928108469,308.0696106,0.08186215907
306.9732361,0.03964027017,306.9732361,0.04139509425,306.9732361,0.04416045919,306.9732361,0.05030831695,306.9732361,0.06219235063,306.9732361,0.08728662133
306.0333557,0.03982016817,306.0333557,0.04170942307,306.0333557,0.04534021765,306.0333557,0.05241771787,306.0333557,0.06645989418,306.0333557,0.09545312822
304.9367065,0.04025870189,304.9367065,0.0422988534,304.9367065,0.04649000242,304.9367065,0.05473645404,304.9367065,0.07078265399,304.9367065,0.1052087173
303.9966125,0.04044118524,303.9966125,0.04300956056,303.9966125,0.04798386991,303.9966125,0.05789356306,303.9966125,0.0774031803,303.9966125,0.117347233
303.056427,0.04078758135,303.056427,0.04376686737,303.056427,0.04883019626,303.056427,0.06028203294,303.056427,0.08210843056,303.056427,0.1279236823
301.9593811,0.04149536416,301.9593811,0.04439131916,301.9593811,0.05064996704,301.9593811,0.0636497736,301.9593811,0.08845821023,301.9593811,0.1416726708
301.0189514,0.04156289622,301.0189514,0.04580369592,301.0189514,0.05302292109,301.0189514,0.06846879423,301.0189514,0.09942139685,301.0189514,0.1637888402
299.9216309,0.0423056148,299.9216309,0.04659494385,299.9216309,0.05547111854,299.9216309,0.07361775637,299.9216309,0.1100276634,299.9216309,0.1826548129
298.9809875,0.04303357005,298.9809875,0.04828764871,298.9809875,0.05864867568,298.9809875,0.08080095798,298.9809875,0.1221775636,298.9809875,0.208116129
298.0402222,0.04344701022,298.0402222,0.04912552238,298.0402222,0.06067826599,298.0402222,0.08423523605,298.0402222,0.1292279214,298.0402222,0.2256273031
296.9425354,0.043830432,296.9425354,0.04974943399,296.9425354,0.06186609715,296.9425354,0.08818018436,296.9425354,0.1381423026,296.9425354,0.2483342439
296.0015564,0.04449220002,296.0015564,0.05141227692,296.0015564,0.066339463,296.0015564,0.09500181675,296.0015564,0.1512312889,296.0015564,0.271083653
295.0604553,0.04508854821,295.0604553,0.05241605267,295.0604553,0.06795886159,295.0604553,0.1001829356,295.0604553,0.1607587039,295.0604553,0.2934823334
293.9624023,0.04562832043,293.9624023,0.05409977213,293.9624023,0.07119514793,293.9624023,0.105611451,293.9624023,0.1724980921,293.9624023,0.3164473176
293.0210876,0.04589296505,293.0210876,0.05503423885,293.0210876,0.07241729647,293.0210876,0.1089357659,293.0210876,0.1802506596,293.0210876,0.3305391967
291.92276,0.04604999721,291.92276,0.05556898937,291.92276,0.07380422205,291.92276,0.1121625155,291.92276,0.1862169206,291.92276,0.3443226516
290.9812317,0.04690046236,290.9812317,0.05623363703,290.9812317,0.07596760988,290.9812317,0.1154281721,290.9812317,0.1929365695,290.9812317,0.3598516881
290.0396118,0.04676001519,290.0396118,0.05731710047,290.0396118,0.0771394074,290.0396118,0.1190132499,290.0396118,0.2001746744,290.0396118,0.3727310002
288.940918,0.04716449603,288.940918,0.05739059672,288.940918,0.07853450626,288.940918,0.1219804361,288.940918,0.2055021673,288.940918,0.3875495195
287.999054,0.0467485413,287.999054,0.0579026714,287.999054,0.07930133492,287.999054,0.1236811578,287.999054,0.2098290175,287.999054,0.3948526382
287.0571289,0.04675439373,287.0571289,0.05815374106,287.0571289,0.0797168687,287.0571289,0.1252967715,287.0571289,0.2133749425,287.0571289,0.4024938047
285.9580688,0.04718033597,285.9580688,0.05870372802,285.9580688,0.08113145828,285.9580688,0.1278430969,285.9580688,0.2190433145,285.9580688,0.4140556455
285.0158997,0.04686274379,285.0158997,0.05861569941,285.0158997,0.08180827647,285.0158997,0.1296538413,285.0158997,0.2219536752,285.0158997,0.4213422239
284.0736389,0.0470328778,284.0736389,0.0586129427,284.0736389,0.08242975175,284.0736389,0.1306901276,284.0736389,0.2237305343,284.0736389,0.4262125492
282.9742126,0.04691208154,282.9742126,0.05862171203,282.9742126,0.08190110326,282.9742126,0.1308754385,282.9742126,0.2244782299,282.9742126,0.4288639426
282.0317383,0.04663918167,282.0317383,0.05874308199,282.0317383,0.08236075193,282.0317383,0.1310319006,282.0317383,0.2248918265,282.0317383,0.4296743572
280.9320679,0.04704426974,280.9320679,0.05860257521,280.9320679,0.08211399615,280.9320679,0.1310445368,280.9320679,0.2249183208,280.9320679,0.4300121367
279.9893799,0.0462551713,279.9893799,0.0582151264,279.9893799,0.08188728988,279.9893799,0.130597949,279.9893799,0.2244541049,279.9893799,0.4285623729
279.0466003,0.04631518573,279.0466003,0.05804363266,279.0466003,0.08138708025,279.0466003,0.1300060451,279.0466003,0.2235123217,279.0466003,0.4267412424
277.9465637,0.04610834271,277.9465637,0.05776077881,277.9465637,0.08092079312,277.9465637,0.129411459,277.9465637,0.2226913124,277.9465637,0.4255233109
277.0035706,0.04618560895,277.0035706,0.05746469647,277.0035706,0.08118378371,277.0035706,0.1294123232,277.0035706,0.2228728682,277.0035706,0.4262944162
276.0604858,0.04599574581,276.0604858,0.05780956894,276.0604858,0.08145406097,276.0604858,0.1304651648,276.0604858,0.2249009013,276.0604858,0.429771632
274.960083,0.04595704377,274.960083,0.05810591951,274.960083,0.08218915015,274.960083,0.1324550807,274.960083,0.2295034975,274.960083,0.4400387108
274.0168152,0.04593807831,274.0168152,0.05823658779,274.0168152,0.08309038728,274.0168152,0.1343128532,274.0168152,0.2336146832,274.0168152,0.4471356571
273.0734253,0.04614112899,273.0734253,0.05848565698,273.0734253,0.08347637206,273.0734253,0.1356630921,273.0734253,0.235926643,273.0734253,0.4538120925
271.9726868,0.04602953419,271.9726868,0.05872346461,271.9726868,0.08362193406,271.9726868,0.1371246129,271.9726868,0.2386472672,271.9726868,0.4596653283
271.0290833,0.04676240683,271.0290833,0.05999192595,271.0290833,0.08692459017,271.0290833,0.1422236562,271.0290833,0.2475169301,271.0290833,0.4768854082
269.9281006,0.04749732837,269.9281006,0.06199231744,269.9281006,0.09106786549,269.9281006,0.1494920552,269.9281006,0.2633479834,269.9281006,0.5087597966
268.984314,0.04835560918,268.984314,0.06334806234,268.984314,0.09433285892,268.984314,0.1574745327,268.984314,0.2787726223,268.984314,0.5411970019
268.0404053,0.04927157983,268.0404053,0.06620681286,268.0404053,0.09934215993,268.0404053,0.1687368751,268.0404053,0.2993261218,268.0404053,0.586717546
266.9390869,0.05140367895,266.9390869,0.06997913122,266.9390869,0.1075418666,266.9390869,0.1849398911,266.9390869,0.3335648775,266.9390869,0.6583442092
265.9949951,0.05385085568,265.9949951,0.07612791657,265.9949951,0.1201010123,265.9949951,0.2108479589,265.9949951,0.3835019171,265.9949951,0.7631746531
265.0508118,0.05754678696,265.0508118,0.08452530205,265.0508118,0.1385112107,265.0508118,0.2491701245,265.0508118,0.464428097,265.0508118,0.9016093612
263.9491577,0.06127494946,263.9491577,0.09360218048,263.9491577,0.1570736766,263.9491577,0.2891457379,263.9491577,0.5391666889,263.9491577,1.048291802
263.0047913,0.06533470005,263.0047913,0.1019001603,263.0047913,0.17355676,263.0047913,0.3248363137,263.0047913,0.609905839,263.0047913,1.204375625
262.0603027,0.07114244998,262.0603027,0.1155107096,262.0603027,0.2034862638,262.0603027,0.3834505379,262.0603027,0.7225871086,262.0603027,1.437574387
260.958313,0.07982595265,260.958313,0.1317508817,260.958313,0.2367506623,260.958313,0.4542001486,260.958313,0.8596975207,260.958313,1.712418199
260.0136414,0.08807909489,260.0136414,0.1481432021,260.0136414,0.2703081369,260.0136414,0.5185691118,260.0136414,1.000570178,260.0136414,1.960812926
259.0688782,0.0930653736,259.0688782,0.1602309048,259.0688782,0.2954853177,259.0688782,0.573117733,259.0688782,1.112210393,259.0688782,2.173249483
257.9665527,0.1028234139,257.9665527,0.1804789156,257.9665527,0.335175544,257.9665527,0.6549609303,257.9665527,1.258488894,257.9665527,2.463431597
257.0216064,0.1107248962,257.0216064,0.1969316006,257.0216064,0.3696516454,257.0216064,0.7245782018,257.0216064,1.394973874,257.0216064,2.713247061
256.0765686,0.118474178,256.0765686,0.2134993076,256.0765686,0.4009908736,256.0765686,0.7925345898,256.0765686,1.523148537,256.0765686,2.941303253
254.9738922,0.126514703,254.9738922,0.2285713106,254.9738922,0.4330743551,254.9738922,0.8556306958,254.9738922,1.655273438,254.9738922,3.125154018
254.028656,0.1301533282,254.028656,0.2363764048,254.028656,0.4517453909,254.028656,0.893315196,254.028656,1.731898665,254.028656,3.341409445
252.9257813,0.1344170421,252.9257813,0.2455323935,252.9257813,0.4695117772,252.9257813,0.9365267754,252.9257813,1.821403027,252.9257813,3.406526804
251.9803619,0.136661768,251.9803619,0.2517552972,251.9803619,0.4823314548,251.9803619,0.9607922435,251.9803619,1.866810322,251.9803619,3.535661697
251.0348358,0.139285177,251.0348358,0.2577094138,251.0348358,0.495629251,251.0348358,0.9884616733,251.0348358,1.927223921,251.0348358,3.653773546
249.9320374,0.1416225135,249.9320374,0.2622153759,249.9320374,0.5053507686,249.9320374,1.007795095,249.9320374,1.966102719,249.9320374,3.784286737
248.9919891,0.1418382078,248.9919891,0.2631637752,248.9919891,0.5076665282,248.9919891,1.0135957,248.9919891,1.988256931,248.9919891,3.650218725
248.0518341,0.1412591636,248.0518341,0.2628423572,248.0518341,0.5077967644,248.0518341,1.014988184,248.0518341,1.990220428,248.0518341,3.920365572
246.954895,0.1406737864,246.954895,0.2612755895,246.954895,0.5054203272,246.954895,1.010363102,246.954895,1.977398276,246.954895,3.763849974
246.0145721,0.1376010627,246.0145721,0.2563724518,246.0145721,0.4961901605,246.0145721,0.9931600094,246.0145721,1.948426008,246.0145721,3.517071486
245.0741577,0.1346895248,245.0741577,0.2505759299,245.0741577,0.4859369099,245.0741577,0.9723951221,245.0741577,1.896408439,245.0741577,3.359479904
243.9768982,0.1305308193,243.9768982,0.2426219136,243.9768982,0.4703899622,243.9768982,0.9385570884,243.9768982,1.849419594,243.9768982,3.734580278
243.0363007,0.1266112477,243.0363007,0.2354822457,243.0363007,0.4534897208,243.0363007,0.9090508223,243.0363007,1.791395545,243.0363007,3.529769421
241.9388275,0.1213531867,241.9388275,0.2254246771,241.9388275,0.4366273284,241.9388275,0.8733032942,241.9388275,1.70412612,241.9388275,3.18632102
240.9980621,0.1152958572,240.9980621,0.214070186,240.9980621,0.4137408733,240.9980621,0.8251281381,240.9980621,1.624473691,240.9980621,3.15745163
240.0571899,0.1095896065,240.0571899,0.204092443,240.0571899,0.393812418,240.0571899,0.7880115509,240.0571899,1.547458291,240.0571899,2.964203835
238.9594269,0.1041439921,238.9594269,0.1922690421,238.9594269,0.3704741001,238.9594269,0.7427265048,238.9594269,1.456855297,238.9594269,2.847735882
238.0183868,0.09878726304,238.0183868,0.1809179187,238.0183868,0.3506554961,238.0183868,0.6998353601,238.0183868,1.375638723,238.0183868,2.711243153
237.0772552,0.09221091121,237.0772552,0.1710219234,237.0772552,0.3288561106,237.0772552,0.6544449925,237.0772552,1.288663983,237.0772552,2.646528482
235.979187,0.08742649853,235.979187,0.1604429632,235.979187,0.3093885481,235.979187,0.6199274063,235.979187,1.218520522,235.979187,2.48202467
235.0378876,0.08488115668,235.0378876,0.1549078822,235.0378876,0.2989194095,235.0378876,0.5977599025,235.0378876,1.177797198,235.0378876,2.413092613
233.9396057,0.08366301656,233.9396057,0.1534082144,233.9396057,0.2970830798,233.9396057,0.593195498,233.9396057,1.172060609,233.9396057,2.416502953
232.9981384,0.0867985338,232.9981384,0.1594657004,232.9981384,0.3081639111,232.9981384,0.616078794,232.9981384,1.223846793,232.9981384,2.493340015
232.0565796,0.09330007434,232.0565796,0.1720788926,232.0565796,0.3334347904,232.0565796,0.6676988602,232.0565796,1.317016482,232.0565796,2.676048517
230.9579926,0.1051182896,230.9579926,0.1924461722,230.9579926,0.3749052882,230.9579926,0.7496789098,230.9579926,1.478036404,230.9579926,3.025911331
230.0162811,0.111194402,230.0162811,0.2062523365,230.0162811,0.4002565444,230.0162811,0.8073067665,230.0162811,1.590184331,230.0162811,3.233548403
229.0744629,0.1152226478,229.0744629,0.2158145458,229.0744629,0.4189367294,229.0744629,0.841765523,229.0744629,1.672925711,229.0744629,3.880912542
227.9756012,0.1185570881,227.9756012,0.2207905054,227.9756012,0.4300411642,227.9756012,0.8625138402,227.9756012,1.705412745,227.9756012,3.472317934
227.0336304,0.1235540137,227.0336304,0.2303032279,227.0336304,0.4448157251,227.0336304,0.8947686553,227.0336304,1.76467514,227.0336304,3.588244677
225.9345551,0.1306679994,225.9345551,0.2403963655,225.9345551,0.466820389,225.9345551,0.9345556498,225.9345551,1.846771359,225.9345551,3.673974991
224.9924164,0.1326647103,224.9924164,0.2469735742,224.9924164,0.4800388515,224.9924164,0.964743793,224.9924164,1.906571388,224.9924164,3.557173967
224.0501862,0.1347544044,224.0501862,0.249959439,224.0501862,0.4857130051,224.0501862,0.9750252962,224.0501862,1.921456814,224.0501862,3.62059164
222.9508362,0.1346013993,222.9508362,0.2482505143,222.9508362,0.4797200859,222.9508362,0.9625056982,222.9508362,1.886442542,222.9508362,3.601459742
222.0084534,0.1329038292,222.0084534,0.2435408831,222.0084534,0.4693377018,222.0084534,0.9407904148,222.0084534,1.843708038,222.0084534,3.593689442
221.065979,0.1304689348,221.065979,0.2357929647,221.065979,0.4552090466,221.065979,0.9042919278,221.065979,1.843708038,221.065979,3.355250835
219.9663391,0.1278762817,219.9663391,0.2306830734,219.9663391,0.4429478645,219.9663391,0.8797999024,219.9663391,1.656686068,219.9663391,3.381918669
219.0237122,0.1251084507,219.0237122,0.2241087109,219.0237122,0.4256253839,219.0237122,0.8473291993,219.0237122,1.664309859,219.0237122,3.133869648
217.9238892,0.1210385785,217.9238892,0.2140743434,217.9238892,0.4029521644,217.9238892,0.7989882231,217.9238892,1.568049908,217.9238892,3.106882334
216.9810944,0.1183001772,216.9810944,0.2071336359,216.9810944,0.3876987696,216.9810944,0.7652495503,216.9810944,1.498493314,216.9810944,2.993754625
216.0382233,0.1170214862,216.0382233,0.2036380321,216.0382233,0.379530549,216.0382233,0.7473889589,216.0382233,1.459433794,216.0382233,2.903230429
214.9381256,0.1203715652,214.9381256,0.2079645544,214.9381256,0.3850187063,214.9381256,0.7578880191,214.9381256,1.47309792,214.9381256,2.923656464
213.9951019,0.124591969,213.9951019,0.2151625156,213.9951019,0.3992384672,213.9951019,0.7822332382,213.9951019,1.52035594,213.9951019,2.972099304
213.052002,0.1365500987,213.052002,0.2379173189,213.052002,0.443428725,213.052002,0.8621016145,213.052002,1.70550108,213.052002,3.241667032
211.9516296,0.1523695439,211.9516296,0.2651402652,211.9516296,0.4934238791,211.9516296,0.9665191174,211.9516296,1.872390866,211.9516296,3.300863266
211.0083618,0.1689944267,211.0083618,0.2973439991,211.0083618,0.554861486,211.0083618,1.08600986,211.0083618,2.106815577,211.0083618,3.479707718
210.065033,0.1814302206,210.065033,0.3144551814,210.065033,0.5873114467,210.065033,1.156094432,210.065033,2.24479413,210.065033,3.524173021
208.964386,0.1933318675,208.964386,0.3385122716,208.964386,0.6314109564,208.964386,1.238825202,208.964386,2.415786505,208.964386,3.568707943
208.0209045,0.211778447,208.0209045,0.3687933385,208.0209045,0.6905097365,208.0209045,1.363434076,208.0209045,2.585945368,208.0209045,3.351649284
207.0773468,0.2299858928,207.0773468,0.3982795179,207.0773468,0.7495142817,207.0773468,1.489592791,207.0773468,2.753179789,207.0773468,3.630812168
205.9764252,0.2539457381,205.9764252,0.4462026954,205.9764252,0.8330889344,205.9764252,1.637797236,205.9764252,2.965039968,205.9764252,3.434042692
205.0327148,0.2736450732,205.0327148,0.4808064401,205.0327148,0.9002896547,205.0327148,1.768075705,205.0327148,3.234273672,205.0327148,3.856510401
203.9316254,0.3033868372,203.9316254,0.5312085152,203.9316254,0.9916635156,203.9316254,1.983280897,203.9316254,3.455111265,203.9316254,3.258967638
202.9877625,0.3465771079,202.9877625,0.609120965,202.9877625,1.148009658,202.9877625,2.215385199,202.9877625,3.466176987,202.9877625,10
202.0438385,0.4021801949,202.0438385,0.7130115032,202.0438385,1.370157242,202.0438385,2.491364241,202.0438385,3.284932852,202.0438385,3.494389296
200.9424896,0.4828010499,200.9424896,0.8658729196,200.9424896,1.667521,200.9424896,2.837669373,200.9424896,3.227342844,200.9424896,3.447619915
199.9983826,0.547512114,199.9983826,0.9825800061,199.9983826,1.822814107,199.9983826,2.952147007,199.9983826,4.26619339,199.9983826,3.342360735