Conc_10uM,,Conc_20uM,,Conc_40uM,,Conc_80uM,,Conc_160uM,,Conc_320uM,
Wavelength (nm),Abs,Wavelength (nm),Abs,Wavelength (nm),Abs,Wavelength (nm),Abs,Wavelength (nm),Abs,Wavelength (nm),Abs
800.0369873,0.001427002018,800.0369873,0.0001754905388,800.0369873,-0.002073375508,800.0369873,-0.001132327947,800.0369873,-0.0006080497405,800.0369873,-0.001188402297
799.0648804,0.0005631777458,799.0648804,-4.234737935E-05,799.0648804,-0.000810457801,799.0648804,-0.001917483285,799.0648804,-0.001705792616,799.0648804,-0.001108625904
797.9534302,0.0003171930439,797.9534302,-0.001997162821,797.9534302,-0.002055547433,797.9534302,-0.001385069801,797.9534302,-5.63759786E-05,797.9534302,-0.0006855920656
796.9805298,0.0008953083307,796.9805298,-0.001079654903,796.9805298,-0.0006980492035,796.9805298,-0.001527017681,796.9805298,-0.0004721104342,796.9805298,-0.00211443915
796.0072632,0.0004682188446,796.0072632,0.0007122148527,796.0072632,-0.002016745508,796.0072632,-0.001398539054,796.0072632,-3.644591561E-05,796.0072632,-0.001461286796
795.0336304,0.0006995100994,795.0336304,-0.002378607402,795.0336304,-0.001338259666,795.0336304,-0.001317304443,795.0336304,-0.001513707219,795.0336304,-0.002010973869
794.0596313,-0.0002270641126,794.0596313,-0.001357923611,794.0596313,-0.002592801116,794.0596313,-0.002758894349,794.0596313,-0.0007529392606,794.0596313,-0.001645297976
792.9459839,-0.001208382775,792.9459839,-0.003004316241,792.9459839,-0.001208124682,792.9459839,-0.003897042712,792.9459839,-0.00231789751,792.9459839,-0.0023795343
791.9711304,0.0007905517705,791.9711304,-0.001384914969,791.9711304,-0.001471554628,791.9711304,-0.002563774586,791.9711304,-0.002209638711,791.9711304,-0.002403321443
790.9959717,-0.0005682909978,790.9959717,-0.00188624661,790.9959717,-0.001780973631,790.9959717,-0.002064513043,790.9959717,-0.001796389814,790.9959717,-0.002817022149
790.0203857,-0.0006642951048,790.0203857,-0.001408705255,790.0203857,-0.002189498162,790.0203857,-0.0003075716668,790.0203857,-0.002994752955,790.0203857,-0.002332779579
789.0444336,0.0001426292147,789.0444336,-0.00202566036,789.0444336,-0.001312039676,789.0444336,-0.002699780976,789.0444336,-0.001800153637,789.0444336,-0.00255409861
788.0681152,0.0005321531207,788.0681152,-0.001882328885,788.0681152,-0.00265650847,788.0681152,-0.003667166689,788.0681152,-0.002615804784,788.0681152,-0.004566064104
786.9518433,0.0002079140831,786.9518433,-0.002075178782,786.9518433,-0.0021818229,786.9518433,-0.002725711558,786.9518433,-0.003655256471,786.9518433,-0.003347940976
785.9747314,-0.0005951763596,785.9747314,-0.002896073973,785.9747314,-0.002527437173,785.9747314,-0.002309452044,785.9747314,-0.00216770824,785.9747314,-0.004436483141
784.9972534,-0.001818559365,784.9972534,-0.002488625934,784.9972534,-0.003346656682,784.9972534,-0.003380562644,784.9972534,-0.002841968555,784.9972534,-0.003265426029
784.0194092,-0.001910885563,784.0194092,-0.00227510184,784.0194092,-0.002598719206,784.0194092,-0.001643595984,784.0194092,-0.003452937584,784.0194092,-0.003691961756
783.0411987,-0.001270641806,783.0411987,-0.002672511153,783.0411987,-0.003372137668,783.0411987,-0.0034222221,783.0411987,-0.003794308985,783.0411987,-0.002324025612
782.062561,-0.0006447031046,782.062561,-0.003078090493,782.062561,-0.002186870901,782.062561,-0.002933357609,782.062561,-0.003411435056,782.062561,-0.003400493879
780.9437256,-0.001551161287,780.9437256,-0.003836390562,780.9437256,-0.002654192969,780.9437256,-0.004408194218,780.9437256,-0.0030808663,780.9437256,-0.004096744582
779.9643555,-0.002080640523,779.9643555,-0.003469064832,779.9643555,-0.002836207859,779.9643555,-0.003525403328,779.9643555,-0.003574134782,779.9643555,-0.003516981145
778.9845581,-0.002845105948,778.9845581,-0.003057630267,778.9845581,-0.00407217769,778.9845581,-0.002531863749,778.9845581,-0.003202270251,778.9845581,-0.004665235057
778.0044556,-0.002307443647,778.0044556,-0.002840219764,778.0044556,-0.003256998956,778.0044556,-0.003552979091,778.0044556,-0.00333746057,778.0044556,-0.003382309107
777.0239868,-0.001721417764,777.0239868,-0.003215477802,777.0239868,-0.00387574872,777.0239868,-0.004479988478,777.0239868,-0.003657823429,777.0239868,-0.003954197746
776.0430908,-0.002873342251,776.0430908,-0.003736260347,776.0430908,-0.003890064545,776.0430908,-0.0044233636,776.0430908,-0.005437030457,776.0430908,-0.003122760216
775.0618896,-0.001361794421,775.0618896,-0.00266906363,775.0618896,-0.003942808136,775.0618896,-0.003866563784,775.0618896,-0.004484958481,775.0618896,-0.003937164787
773.9400635,-0.002498921007,773.9400635,-0.004139668774,773.9400635,-0.003417445114,773.9400635,-0.004315782338,773.9400635,-0.003568024375,773.9400635,-0.003228839021
772.9580078,-0.002909187926,772.9580078,-0.003155244514,772.9580078,-0.004389436916,772.9580078,-0.004555612803,772.9580078,-0.005062255077,772.9580078,-0.004401378334
771.975647,-0.003417547792,771.975647,-0.003789330833,771.975647,-0.005301162601,771.975647,-0.004205456935,771.975647,-0.004804732278,771.975647,-0.004399174359
770.9929199,-0.001384192496,770.9929199,-0.004374471027,770.9929199,-0.003999751993,770.9929199,-0.004705747124,770.9929199,-0.004706669133,770.9929199,-0.004862843081
770.0098267,-0.002115727169,770.0098267,-0.003919412848,770.0098267,-0.004639061168,770.0098267,-0.004821833689,770.0098267,-0.004513191059,770.0098267,-0.005785531364
769.0263672,-0.00313129276,769.0263672,-0.003844190622,769.0263672,-0.003982208204,769.0263672,-0.005543976557,769.0263672,-0.004748969804,769.0263672,-0.004773088265
768.0425415,-0.002685785992,768.0425415,-0.004833148792,768.0425415,-0.003976616543,768.0425415,-0.004786760081,768.0425415,-0.005161670968,768.0425415,-0.005745170638
767.0583496,-0.002633403987,767.0583496,-0.003795335302,767.0583496,-0.00442520855,767.0583496,-0.004615908489,767.0583496,-0.005068651401,767.0583496,-0.00445477711
765.9331055,-0.002812495688,765.9331055,-0.004382415209,765.9331055,-0.004506837577,765.9331055,-0.005445313174,765.9331055,-0.005139620043,765.9331055,-0.00439533079
764.9481201,-0.003328778083,764.9481201,-0.004058073275,764.9481201,-0.005091063678,764.9481201,-0.005172311794,764.9481201,-0.005169140175,764.9481201,-0.005495516583
763.9628296,-0.002860484412,763.9628296,-0.004089512862,763.9628296,-0.004483165219,763.9628296,-0.005035388749,763.9628296,-0.004154129419,763.9628296,-0.004741032142
762.9771118,-0.003787893802,762.9771118,-0.005155224353,762.9771118,-0.004929853138,762.9771118,-0.006244610064,762.9771118,-0.005421078298,762.9771118,-0.005769744981
761.9910889,-0.003773471806,761.9910889,-0.005303668324,761.9910889,-0.005456100684,761.9910889,-0.005932176486,761.9910889,-0.005391370971,761.9910889,-0.00570986513
761.0046387,-0.003661468392,761.0046387,-0.005233749747,761.0046387,-0.005327500869,761.0046387,-0.005617627408,761.0046387,-0.005091984756,761.0046387,-0.006333806086
760.0178833,-0.003662597854,760.0178833,-0.005930184852,760.0178833,-0.00611654995,760.0178833,-0.005756921601,760.0178833,-0.006272779312,760.0178833,-0.005905210972
759.0307617,-0.003997341264,759.0307617,-0.006274004001,759.0307617,-0.005807242356,759.0307617,-0.00561348768,759.0307617,-0.006028738339,759.0307617,-0.006823650561
758.0432739,-0.004778669681,758.0432739,-0.005698572844,758.0432739,-0.005722741131,758.0432739,-0.006505615544,758.0432739,-0.006750714034,758.0432739,-0.006451040041
757.055481,-0.00469386531,757.055481,-0.006111904513,757.055481,-0.007025322877,757.055481,-0.006179742515,757.055481,-0.006286404096,757.055481,-0.006298446562
756.0672607,-0.004523182288,756.0672607,-0.007001277991,756.0672607,-0.006300487556,756.0672607,-0.00665084552,756.0672607,-0.006977333687,756.0672607,-0.007678152528
754.937439,-0.005061743315,754.937439,-0.005668782163,754.937439,-0.006901874673,754.937439,-0.006469912827,754.937439,-0.006870994344,754.937439,-0.006941210944
753.9484863,-0.005110609811,753.9484863,-0.006131506525,753.9484863,-0.007424060255,753.9484863,-0.006781959441,753.9484863,-0.006692651194,753.9484863,-0.00748950569
752.9591675,-0.0053468314,752.9591675,-0.007173128892,752.9591675,-0.007254599594,752.9591675,-0.006234964821,752.9591675,-0.007941907272,752.9591675,-0.007272470277
751.9694824,-0.006347275805,751.9694824,-0.007653889712,751.9694824,-0.007349187974,751.9694824,-0.008051999845,751.9694824,-0.00782233011,751.9694824,-0.007096176036
750.9794312,-0.005294002127,750.9794312,-0.006820439827,750.9794312,-0.007666199468,750.9794312,-0.008593616076,750.9794312,-0.007860922255,750.9794312,-0.008778841235
749.9890747,-0.005612465553,749.9890747,-0.007597219665,749.9890747,-0.008024148643,749.9890747,-0.007792481221,749.9890747,-0.007740559056,749.9890747,-0.008148955181
748.9983521,-0.006634886842,748.9983521,-0.00786036253,748.9983521,-0.007775090169,748.9983521,-0.008805578575,748.9983521,-0.008400491439,748.9983521,-0.00838322565
748.0072632,-0.006073054858,748.0072632,-0.007597016171,748.0072632,-0.007716248743,748.0072632,-0.008382362314,748.0072632,-0.007870480418,748.0072632,-0.008788887411
747.0158081,-0.006113282871,747.0158081,-0.007657348644,747.0158081,-0.008416334167,747.0158081,-0.008748196065,747.0158081,-0.007727641147,747.0158081,-0.009619432501
746.0239868,-0.00692740269,746.0239868,-0.008576053195,746.0239868,-0.009594365954,746.0239868,-0.009102466516,746.0239868,-0.009085634723,746.0239868,-0.009566208348
745.0318604,-0.006810297724,745.0318604,-0.009072351269,745.0318604,-0.008924175985,745.0318604,-0.008856968023,745.0318604,-0.009880442172,745.0318604,-0.01013401244
744.0393677,-0.008114860393,744.0393677,-0.00974408444,744.0393677,-0.009702672251,744.0393677,-0.01003724616,744.0393677,-0.01007989049,744.0393677,-0.01044763345
743.0465088,-0.007708263583,743.0465088,-0.008733582683,743.0465088,-0.009522045031,743.0465088,-0.009750057943,743.0465088,-0.01061883382,743.0465088,-0.01062105689
742.0532837,-0.007986588404,742.0532837,-0.008930109441,742.0532837,-0.01005490124,742.0532837,-0.009113569744,742.0532837,-0.01049827319,742.0532837,-0.01022625621
741.0597534,-0.007874547504,741.0597534,-0.009964341298,741.0597534,-0.01052859332,741.0597534,-0.01023849379,741.0597534,-0.01061186194,741.0597534,-0.01055729482
740.0658569,-0.009004862048,740.0658569,-0.00976873748,740.0658569,-0.0105896825,740.0658569,-0.009940660559,740.0658569,-0.01066546235,740.0658569,-0.01079335064
738.9295044,-0.009041067213,738.9295044,-0.01028844994,738.9295044,-0.01040138584,738.9295044,-0.01125130523,738.9295044,-0.01103048958,738.9295044,-0.01163438894
737.9348755,-0.009823404253,737.9348755,-0.011234859,737.9348755,-0.0112049412,737.9348755,-0.01143746916,737.9348755,-0.01111371256,737.9348755,-0.01177695673
736.9398804,-0.009928668849,736.9398804,-0.01069561951,736.9398804,-0.01137241442,736.9398804,-0.01200041547,736.9398804,-0.0114370659,736.9398804,-0.01185635943
735.944519,-0.008722419851,735.944519,-0.01087702252,735.944519,-0.0111704804,735.944519,-0.01136807632,735.944519,-0.01099768002,735.944519,-0.01145763882
734.9488525,-0.008570368402,734.9488525,-0.0102741411,734.9488525,-0.01076006889,734.9488525,-0.01142466068,734.9488525,-0.01108837873,734.9488525,-0.01151900087
733.9528198,-0.008913474157,733.9528198,-0.01066056266,733.9528198,-0.01096698921,733.9528198,-0.01105017401,733.9528198,-0.01115620043,733.9528198,-0.01113172714
732.9564209,-0.007874649018,732.9564209,-0.01028066315,732.9564209,-0.01052844152,732.9564209,-0.01068299171,732.9564209,-0.01087025646,732.9564209,-0.01087717433
731.9596558,-0.009788580239,731.9596558,-0.01066864561,731.9596558,-0.01045390032,731.9596558,-0.01126522943,731.9596558,-0.01053010952,731.9596558,-0.01171139907
730.9625854,-0.009298016317,730.9625854,-0.01138734259,730.9625854,-0.01076996792,730.9625854,-0.01137075014,730.9625854,-0.01168232039,730.9625854,-0.01130876224
729.9651489,-0.01015930064,729.9651489,-0.01125725824,729.9651489,-0.01167526469,729.9651489,-0.01218741573,729.9651489,-0.0120266024,729.9651489,-0.01268563978
728.9674072,-0.01032424439,728.9674072,-0.01248622779,728.9674072,-0.01144069619,728.9674072,-0.01278679445,728.9674072,-0.01212040987,728.9674072,-0.0128468629
727.9692993,-0.01135617401,727.9692993,-0.01291712467,727.9692993,-0.01311613899,727.9692993,-0.0135294497,727.9692993,-0.01292938739,727.9692993,-0.01300958358
726.9708252,-0.01166306809,726.9708252,-0.01235179324,726.9708252,-0.01379634626,726.9708252,-0.01375557017,726.9708252,-0.01340301801,726.9708252,-0.01445415802
725.9720459,-0.01204583887,725.9720459,-0.01429212745,725.9720459,-0.01416115742,725.9720459,-0.01412041485,725.9720459,-0.01451765094,725.9720459,-0.0142711373
724.9729004,-0.01330145448,724.9729004,-0.01451519784,724.9729004,-0.01466868538,724.9729004,-0.01560485922,724.9729004,-0.01479805261,724.9729004,-0.01536925603
723.9733887,-0.01335211378,723.9733887,-0.01476512663,723.9733887,-0.01470797509,723.9733887,-0.01542706974,723.9733887,-0.01553178392,723.9733887,-0.01608007215
722.9735718,-0.01381379925,722.9735718,-0.01562169008,722.9735718,-0.01616288163,722.9735718,-0.01626916416,722.9735718,-0.01579645462,722.9735718,-0.01656827144
721.9733887,-0.01461727917,721.9733887,-0.01590172946,721.9733887,-0.01634690166,721.9733887,-0.01597324386,721.9733887,-0.01631773449,721.9733887,-0.01684775017
720.9729004,-0.01463534962,720.9729004,-0.01614701934,720.9729004,-0.01633767784,720.9729004,-0.0168998912,720.9729004,-0.01653413475,720.9729004,-0.01705223881
719.9720459,-0.01470221952,719.9720459,-0.01592049561,719.9720459,-0.01633423753,719.9720459,-0.01652032882,719.9720459,-0.01655835472,719.9720459,-0.01668466814
718.9708252,-0.0148041565,718.9708252,-0.01628861204,718.9708252,-0.01655999944,718.9708252,-0.01709445007,718.9708252,-0.01610446721,718.9708252,-0.01723752543
717.9692993,-0.01495984383,717.9692993,-0.0164266713,717.9692993,-0.01684406586,717.9692993,-0.01650597528,717.9692993,-0.0165202301,717.9692993,-0.01718592457
716.9674683,-0.01482857391,716.9674683,-0.0155118024,716.9674683,-0.0171062462,716.9674683,-0.0166651886,716.9674683,-0.01650452986,716.9674683,-0.01693678834
715.965271,-0.01441128924,715.965271,-0.01593666524,715.965271,-0.01615724526,715.965271,-0.01671281643,715.965271,-0.01615535095,715.965271,-0.01683390513
714.9627075,-0.01422800031,714.9627075,-0.01550440863,714.9627075,-0.0157263577,714.9627075,-0.01608720608,714.9627075,-0.01594365202,714.9627075,-0.01670987718
713.9598389,-0.01351108216,713.9598389,-0.01504676789,713.9598389,-0.01489261258,713.9598389,-0.01553518046,713.9598389,-0.01575441845,713.9598389,-0.01595672593
712.956604,-0.01319594961,712.956604,-0.01456411369,712.956604,-0.01499190461,712.956604,-0.01521951426,712.956604,-0.01443683077,712.956604,-0.01514482405
711.953064,-0.01069208421,711.953064,-0.01407606062,711.953064,-0.01470677368,711.953064,-0.01437808387,711.953064,-0.01399621088,711.953064,-0.01462153345
710.9491577,-0.01121099573,710.9491577,-0.01244955417,710.9491577,-0.01323416736,710.9491577,-0.01347635128,710.9491577,-0.01310980972,710.9491577,-0.01358073484
709.9449463,-0.01064823661,709.9449463,-0.01173437852,709.9449463,-0.01193826552,709.9449463,-0.01191514637,709.9449463,-0.01197639294,709.9449463,-0.01264209393
708.9403687,-0.00994121749,708.9403687,-0.01028253417,708.9403687,-0.0111075053,708.9403687,-0.01126684342,708.9403687,-0.01158680581,708.9403687,-0.01100378856
707.9354858,-0.008470105007,707.9354858,-0.009097700939,707.9354858,-0.009834589437,707.9354858,-0.01062833145,707.9354858,-0.01030295994,707.9354858,-0.01098864526
706.9302368,-0.00699669309,706.9302368,-0.008394855075,706.9302368,-0.009143378586,706.9302368,-0.009097650647,706.9302368,-0.008974840865,706.9302368,-0.009811914526
706.0683594,-0.005403744988,706.0683594,-0.006578491535,706.0683594,-0.007783988956,706.0683594,-0.008052457124,706.0683594,-0.007118942682,706.0683594,-0.008268798701
705.0625,-0.005049205851,705.0625,-0.005515606608,705.0625,-0.006228738464,705.0625,-0.005961336195,705.0625,-0.006726399064,705.0625,-0.007167425472
704.0563354,-0.003370802151,704.0563354,-0.004700728226,704.0563354,-0.005062408745,704.0563354,-0.004897859413,704.0563354,-0.004530149978,704.0563354,-0.005620591342
703.0498047,-0.002012313576,703.0498047,-0.003518367885,703.0498047,-0.004012063146,703.0498047,-0.004106745124,703.0498047,-0.003679898102,703.0498047,-0.004240423441
702.0429688,-0.0004474413581,702.0429688,-0.001694962964,702.0429688,-0.00164540112,702.0429688,-0.002481831005,702.0429688,-0.001962375594,702.0429688,-0.003149950644
701.0357666,0.0007720359135,701.0357666,-0.0003494752455,701.0357666,-0.001422380097,701.0357666,-0.001681606052,701.0357666,-0.001287418185,701.0357666,-0.001899648691
700.0282593,0.002087431261,700.0282593,0.000655513024,700.0282593,2.143411075E-05,700.0282593,0.0004875510349,700.0282593,7.561949315E-05,700.0282593,-0.0003236093326
699.0204468,0.002764861332,699.0204468,0.001812455244,699.0204468,0.001490246388,699.0204468,0.001509494265,699.0204468,0.001451831195,699.0204468,0.0008097686223
698.0122681,0.004624653608,698.0122681,0.002902877051,698.0122681,0.002713829977,698.0122681,0.002918200335,698.0122681,0.003011480905,698.0122681,0.002440904267
697.0037842,0.005755585618,697.0037842,0.003757585539,697.0037842,0.00356388581,697.0037842,0.004049237818,697.0037842,0.004118823446,697.0037842,0.002840130124
695.9949341,0.007523075677,695.9949341,0.006094285287,695.9949341,0.005783759058,695.9949341,0.005409260746,695.9949341,0.005905471276,695.9949341,0.004033639561
694.9857788,0.00773480814,694.9857788,0.007007178385,694.9857788,0.006651547737,694.9857788,0.006373300217,694.9857788,0.006256446708,694.9857788,0.005560022779
693.9763184,0.00885638874,693.9763184,0.007094131783,693.9763184,0.007163259666,693.9763184,0.007141812239,693.9763184,0.007658950053,693.9763184,0.006928711664
692.9664917,0.009957962669,692.9664917,0.008775237016,692.9664917,0.008140066639,692.9664917,0.007824754342,692.9664917,0.008513549343,692.9664917,0.008252178319
691.9563599,0.01171368547,691.9563599,0.009016730823,691.9563599,0.009091478772,691.9563599,0.008884738199,691.9563599,0.009640904143,691.9563599,0.008140699938
690.9458618,0.0121712843,690.9458618,0.01074781548,690.9458618,0.01032129582,690.9458618,0.00990253035,690.9458618,0.009817395359,690.9458618,0.009971815161
689.9350586,0.01250386331,689.9350586,0.0111531876,689.9350586,0.0112653086,689.9350586,0.01049546525,689.9350586,0.01081190072,689.9350586,0.009707526304
689.0684204,0.0130125992,689.0684204,0.01210987289,689.0684204,0.01154141966,689.0684204,0.01078366488,689.0684204,0.01130085625,689.0684204,0.01036840398
688.0570068,0.01625204273,688.0570068,0.01301177219,688.0570068,0.01296080276,688.0570068,0.01258422341,688.0570068,0.01281875372,688.0570068,0.01344249211
687.0452881,0.01436945423,687.0452881,0.0129150385,687.0452881,0.01233160309,687.0452881,0.01263184473,687.0452881,0.0126212379,687.0452881,0.01299256738
686.0332642,0.01449613925,686.0332642,0.01374358218,686.0332642,0.01292965282,686.0332642,0.01323254965,686.0332642,0.01305471826,686.0332642,0.01173910964
685.020874,0.01655086502,685.020874,0.01359513495,685.020874,0.01348759048,685.020874,0.01415521186,685.020874,0.01367973071,685.020874,0.01308139507
684.0081787,0.0163314864,684.0081787,0.01468990464,684.0081787,0.01443667244,684.0081787,0.01494805329,684.0081787,0.01414906047,684.0081787,0.01446482539
682.9951782,0.01607374847,682.9951782,0.01475095935,682.9951782,0.01404047012,682.9951782,0.01472316217,682.9951782,0.01409587171,682.9951782,0.01529692393
681.9818726,0.01698820665,681.9818726,0.01493516658,681.9818726,0.01515989937,681.9818726,0.01495976187,681.9818726,0.01520758867,681.9818726,0.0141478572
680.9682007,0.01703884453,680.9682007,0.01574288122,680.9682007,0.01486203168,680.9682007,0.01446166821,680.9682007,0.01564060152,680.9682007,0.01523305755
679.9542236,0.0167911537,679.9542236,0.01622511633,679.9542236,0.01584905386,679.9542236,0.01493698824,679.9542236,0.01556482445,679.9542236,0.01456495654
678.9398804,0.01727436483,678.9398804,0.01657560654,678.9398804,0.01624236815,678.9398804,0.01558135264,678.9398804,0.01552788075,678.9398804,0.01544769853
678.0702515,0.01783346571,678.0702515,0.01630060375,678.0702515,0.01637016423,678.0702515,0.01626607031,678.0702515,0.01556946617,678.0702515,0.0155709153
677.0553589,0.01928038895,677.0553589,0.01745040342,677.0553589,0.01713639125,677.0553589,0.01627743803,677.0553589,0.01665317267,677.0553589,0.01632312685
676.0401001,0.01918371022,676.0401001,0.01719983853,676.0401001,0.0167775657,676.0401001,0.01769809239,676.0401001,0.01683765091,676.0401001,0.01716092415
675.0245972,0.01789375022,675.0245972,0.0167664811,675.0245972,0.01656820998,675.0245972,0.0168143753,675.0245972,0.01617677696,675.0245972,0.01700866595
674.008728,0.01832815446,674.008728,0.0170054622,674.008728,0.01659093611,674.008728,0.01677444577,674.008728,0.01665726118,674.008728,0.01664956845
672.9925537,0.0185491927,672.9925537,0.01767870598,672.9925537,0.01738379523,672.9925537,0.01777203009,672.9925537,0.01763632521,672.9925537,0.01663162746
671.9760742,0.01838140376,671.9760742,0.01743110828,671.9760742,0.01668703742,671.9760742,0.01695447974,671.9760742,0.01735706814,671.9760742,0.01616334356
670.9592896,0.01891286671,670.9592896,0.01729033887,670.9592896,0.01743070409,670.9592896,0.01655729301,670.9592896,0.01711013913,670.9592896,0.01653699018
669.9421387,0.01876072213,669.9421387,0.01777780056,669.9421387,0.01639244892,669.9421387,0.01716461405,669.9421387,0.01793699339,669.9421387,0.01646904275
669.0700684,0.01896497235,669.0700684,0.01780735888,669.0700684,0.01729588769,669.0700684,0.01792744361,669.0700684,0.01809589192,669.0700684,0.0178219229
668.0523682,0.01972065121,668.0523682,0.01769598946,668.0523682,0.01702368632,668.0523682,0.0164789632,668.0523682,0.0170995295,668.0523682,0.01646624506
667.0343018,0.01818582416,667.0343018,0.01666710526,667.0343018,0.01540346909,667.0343018,0.01619507559,667.0343018,0.015916178,667.0343018,0.01533462573
666.0159912,0.01697587781,666.0159912,0.01559195109,666.0159912,0.01590130292,666.0159912,0.01512317732,666.0159912,0.01522195898,666.0159912,0.01486463007
664.9973145,0.01686111651,664.9973145,0.01614085585,664.9973145,0.01492233295,664.9973145,0.01466553845,664.9973145,0.01560767554,664.9973145,0.01465579215
663.9783936,0.01649025641,663.9783936,0.0156430155,663.9783936,0.01511486806,663.9783936,0.01520027034,663.9783936,0.01511025801,663.9783936,0.01463051792
662.9591064,0.01653693616,662.9591064,0.0153311668,662.9591064,0.01479091775,662.9591064,0.01560061797,662.9591064,0.01457376312,662.9591064,0.01405808982
661.9395142,0.01627251878,661.9395142,0.01571510173,661.9395142,0.01464939304,661.9395142,0.01451292075,661.9395142,0.01469598245,661.9395142,0.01460786909
661.0653076,0.01718502678,661.0653076,0.01539544947,661.0653076,0.0152013693,661.0653076,0.01485522743,661.0653076,0.01454712916,661.0653076,0.01445856318
660.045105,0.01665685698,660.045105,0.01524893008,660.045105,0.01479102485,660.045105,0.01458511408,660.045105,0.01478068624,660.045105,0.01372399833
659.0246582,0.01698435843,659.0246582,0.01431653276,659.0246582,0.01495941356,659.0246582,0.01385698933,659.0246582,0.0146840401,659.0246582,0.01392335352
658.0038452,0.0159636829,658.0038452,0.01494727656,658.0038452,0.01532583032,658.0038452,0.01454860065,658.0038452,0.01441539824,658.0038452,0.01375245303
656.9827271,0.01621681266,656.9827271,0.01460773498,656.9827271,0.01431147568,656.9827271,0.01244616043,656.9827271,0.01426177099,656.9827271,0.01404686086
655.9613037,0.01624749973,655.9613037,0.01453152299,655.9613037,0.01505933702,655.9613037,0.01434144098,655.9613037,0.0141677279,655.9613037,0.01340148319
654.9395752,0.01594534144,654.9395752,0.01478896197,654.9395752,0.01436335314,654.9395752,0.01472484879,654.9395752,0.01439883374,654.9395752,0.01390303951
654.0635376,0.01573034748,654.0635376,0.0153715536,654.0635376,0.01403188799,654.0635376,0.01435505878,654.0635376,0.01451741718,654.0635376,0.01352299936
653.0412598,0.01631484926,653.0412598,0.01440964453,653.0412598,0.01444927696,653.0412598,0.01415459719,653.0412598,0.01512695663,653.0412598,0.01395959966
652.0186768,0.01600104012,652.0186768,0.01415213663,652.0186768,0.01403234247,652.0186768,0.01425898913,652.0186768,0.01405431982,652.0186768,0.01406399906
650.9957275,0.01552176382,650.9957275,0.01510840934,650.9957275,0.01448827051,650.9957275,0.01412477903,650.9957275,0.01455309801,650.9957275,0.01361778472
649.9724731,0.01606179588,649.9724731,0.01488973014,649.9724731,0.01380052324,649.9724731,0.01382564195,649.9724731,0.0142982332,649.9724731,0.01418644935
648.9489746,0.01623664424,648.9489746,0.01448128466,648.9489746,0.01407373138,648.9489746,0.01372653618,648.9489746,0.01463177614,648.9489746,0.0134455096
648.0714111,0.01570168138,648.0714111,0.01414111815,648.0714111,0.01392308623,648.0714111,0.01408675406,648.0714111,0.01397812553,648.0714111,0.0136390198
647.0473022,0.01564945653,647.0473022,0.01431663986,647.0473022,0.0141628338,647.0473022,0.01432220452,647.0473022,0.01406014897,647.0473022,0.01326924562
646.0228882,0.0160486605,646.0228882,0.01339470223,646.0228882,0.01410079189,646.0228882,0.01351397298,646.0228882,0.01444579754,646.0228882,0.01387481578
644.9981689,0.016240675,644.9981689,0.01432993636,644.9981689,0.01394035388,644.9981689,0.01355355047,644.9981689,0.01418997999,644.9981689,0.01328643318
643.9731445,0.01573074982,643.9731445,0.0144865578,643.9731445,0.01442133822,643.9731445,0.01436313987,643.9731445,0.01466958132,643.9731445,0.01361692976
642.947876,0.01545384061,642.947876,0.01455676556,642.947876,0.01411477756,642.947876,0.01343458891,642.947876,0.01447419263,642.947876,0.01338349003
642.0687866,0.01616815291,642.0687866,0.01445711777,642.0687866,0.01362689305,642.0687866,0.01413707994,642.0687866,0.01445106976,642.0687866,0.0132008465
641.0429077,0.01605822332,641.0429077,0.01534146443,641.0429077,0.01377620641,641.0429077,0.01382283587,641.0429077,0.01425602008,641.0429077,0.01349458657
640.0167236,0.01607982069,640.0167236,0.01445382647,640.0167236,0.01463445369,640.0167236,0.0137849981,640.0167236,0.01417486928,640.0167236,0.01364692673
638.9902344,0.01624736562,638.9902344,0.01422269084,638.9902344,0.01452649105,638.9902344,0.01355368365,638.9902344,0.01418444328,638.9902344,0.01398074534
637.9634399,0.01629168168,637.9634399,0.01440054644,637.9634399,0.01434716582,637.9634399,0.01384100784,637.9634399,0.01455122419,637.9634399,0.01322195493
636.9363403,0.01557826716,636.9363403,0.01458599698,636.9363403,0.01445015986,636.9363403,0.01400528662,636.9363403,0.01509138942,636.9363403,0.01397927478
636.0557251,0.01612814888,636.0557251,0.01446643192,636.0557251,0.01412298717,636.0557251,0.01339184586,636.0557251,0.01402164809,636.0557251,0.01320097968
635.0280762,0.0153930895,635.0280762,0.01441167854,635.0280762,0.01415855531,635.0280762,0.01416502707,635.0280762,0.01415521186,635.0280762,0.01374537311
634.0001221,0.01670584083,634.0001221,0.01446688641,634.0001221,0.01450973563,634.0001221,0.01370970532,634.0001221,0.0137431547,634.0001221,0.01324124914
632.9718628,0.01692129299,632.9718628,0.01455068868,632.9718628,0.01397879329,632.9718628,0.01385586709,632.9718628,0.0145882722,632.9718628,0.01334961411
631.9433594,0.01583815366,631.9433594,0.01429919619,631.9433594,0.01437009592,631.9433594,0.01415641513,631.9433594,0.01411111373,631.9433594,0.01335364487
631.0614624,0.0160247013,631.0614624,0.01447826065,631.0614624,0.01373244077,631.0614624,0.01410186198,631.0614624,0.01406402607,631.0614624,0.01341133472
630.0324097,0.01580736041,630.0324097,0.01419238746,630.0324097,0.01388678886,630.0324097,0.01447504945,630.0324097,0.01451166254,630.0324097,0.01384362765
629.0029907,0.01604175754,629.0029907,0.01457772497,629.0029907,0.01402210258,629.0029907,0.01357334014,629.0029907,0.01447234582,629.0029907,0.01344882045
627.9732666,0.01595468633,627.9732666,0.01425470971,627.9732666,0.01384910569,627.9732666,0.01390132867,627.9732666,0.01430272777,627.9732666,0.01400750503
626.9432983,0.01583345421,626.9432983,0.01438122708,626.9432983,0.01426880714,626.9432983,0.01411314588,626.9432983,0.01475055795,626.9432983,0.01408279594
626.0602417,0.01602271385,626.0602417,0.01459667832,626.0602417,0.01461156365,626.0602417,0.01427998859,626.0602417,0.01460778899,626.0602417,0.0140884649
625.0296631,0.0166184213,625.0296631,0.01509484742,625.0296631,0.0146220848,625.0296631,0.01407528296,625.0296631,0.01418955158,625.0296631,0.01350043435
623.9988403,0.01653744653,623.9988403,0.01489471272,623.9988403,0.01422606129,623.9988403,0.01385682914,623.9988403,0.01430117618,623.9988403,0.01373783778
622.9677124,0.01673946902,622.9677124,0.01454137359,622.9677124,0.01458987873,622.9677124,0.01426597126,622.9677124,0.01431701425,622.9677124,0.01411028486
621.9362793,0.01622208022,621.9362793,0.01474828087,621.9362793,0.01429258846,621.9362793,0.01474471949,621.9362793,0.0148599688,621.9362793,0.0136035746
621.052002,0.01641166955,621.052002,0.0151710771,621.052002,0.01486278139,621.052002,0.01422440261,621.052002,0.01472747326,621.052002,0.01401140913
620.0200195,0.01660086028,620.0200195,0.01498446614,620.0200195,0.01417981647,620.0200195,0.01402528398,620.0200195,0.01467946172,620.0200195,0.01444649324
618.9877319,0.01612298936,618.9877319,0.01481033489,618.9877319,0.01428964641,618.9877319,0.01404466759,618.9877319,0.01440836024,618.9877319,0.01429756451
617.9552002,0.01614555717,617.9552002,0.01437600981,617.9552002,0.0139057124,617.9552002,0.01429959759,617.9552002,0.01397181675,617.9552002,0.01405811682
617.0698853,0.01605728269,617.0698853,0.01480621006,617.0698853,0.01369412988,617.0698853,0.01385471784,617.0698853,0.01431457978,617.0698853,0.01362384763
616.0368042,0.015772596,616.0368042,0.01440022513,616.0368042,0.01430826541,616.0368042,0.01421006676,616.0368042,0.01439118106,616.0368042,0.01341112144
615.003418,0.01576102711,615.003418,0.01423582435,615.003418,0.01423847303,615.003418,0.01415042486,615.003418,0.01445500366,615.003418,0.01357932296
613.9697266,0.01656452566,613.9697266,0.01397374086,613.9697266,0.01444847416,613.9697266,0.01334371418,613.9697266,0.01387323905,613.9697266,0.01336386893
612.935791,0.01556308102,612.935791,0.0140698012,612.935791,0.01425840054,612.935791,0.01350732427,612.935791,0.01377631351,612.935791,0.01264815405
612.0493164,0.0157215707,612.0493164,0.01459228806,612.0493164,0.01340169646,612.0493164,0.01371400617,612.0493164,0.01381123811,612.0493164,0.01414697524
611.0148315,0.01520943921,611.0148315,0.01431944873,611.0148315,0.01370836888,611.0148315,0.01469617058,611.0148315,0.01363640185,611.0148315,0.0133013539
609.9799805,0.01535825152,609.9799805,0.01397406217,609.9799805,0.01384047419,609.9799805,0.01403236948,609.9799805,0.01388117671,609.9799805,0.01328710094
608.9449463,0.01616487466,608.9449463,0.01392530464,608.9449463,0.01382981054,608.9449463,0.01354524493,608.9449463,0.01409504283,608.9449463,0.01326075848
608.0574951,0.01508359052,608.0574951,0.01414670795,608.0574951,0.01353707258,608.0574951,0.0138182668,608.0574951,0.01398125291,608.0574951,0.01374026947
607.0218506,0.0152174551,607.0218506,0.01393065043,607.0218506,0.01409843937,607.0218506,0.01369263418,607.0218506,0.01371224318,607.0218506,0.01274880022
605.9859619,0.01512063108,605.9859619,0.01370473579,605.9859619,0.01419415232,605.9859619,0.0137513848,605.9859619,0.01353985071,605.9859619,0.01312730927
604.9497681,0.01511752233,604.9497681,0.01396756619,604.9497681,0.01361805201,604.9497681,0.01343239937,604.9497681,0.0135240946,604.9497681,0.01355531346
604.0614014,0.01536565367,604.0614014,0.01385487802,604.0614014,0.01355643477,604.0614014,0.01384488307,604.0614014,0.01339571644,604.0614014,0.01324760076
603.0247192,0.01514159143,603.0247192,0.01408833172,603.0247192,0.01439094078,603.0247192,0.01349909883,603.0247192,0.0137375975,603.0247192,0.01305047702
601.9876709,0.01558140665,601.9876709,0.01382107195,601.9876709,0.01362721343,601.9876709,0.01308600977,601.9876709,0.01353018265,601.9876709,0.01291514561
600.9504395,0.01503146626,600.9504395,0.01330121979,600.9504395,0.0138955554,600.9504395,0.01333399769,600.9504395,0.01296656299,600.9504395,0.01286682673
600.0610962,0.01499724668,600.0610962,0.01368229557,600.0610962,0.01361671649,600.0610962,0.01308171544,600.0610962,0.01325806323,600.0610962,0.01267485972
599.0232544,0.0147534227,599.0232544,0.01366175245,599.0232544,0.01352433488,599.0232544,0.01339638419,599.0232544,0.01298920717,599.0232544,0.01281358209
597.9851685,0.01484309323,597.9851685,0.01369017642,597.9851685,0.01285976078,597.9851685,0.01319174748,597.9851685,0.01294007991,597.9851685,0.01263293717
596.9468384,0.01516692247,596.9468384,0.01346585527,596.9468384,0.01326350775,596.9468384,0.01324210316,596.9468384,0.01299534179,596.9468384,0.01290885173
596.0565796,0.01483953092,596.0565796,0.01371104084,596.0565796,0.0133976927,596.0565796,0.01302750967,596.0565796,0.01305927988,596.0565796,0.01224021334
595.0176392,0.01518941298,595.0176392,0.01318683755,595.0176392,0.01306613535,595.0176392,0.01299944893,595.0176392,0.01303409785,595.0176392,0.01290247869
593.9784546,0.01545330416,593.9784546,0.01334256679,593.9784546,0.01304930262,593.9784546,0.01299784891,593.9784546,0.01276594121,593.9784546,0.01222027093
592.9390259,0.01424010471,592.9390259,0.01326799113,592.9390259,0.01252885442,592.9390259,0.01233011205,592.9390259,0.01236316282,592.9390259,0.01223211922
592.0478516,0.01478028484,592.0478516,0.01315228269,592.0478516,0.01315639168,592.0478516,0.01245044917,592.0478516,0.01274053659,592.0478516,0.0123016173
591.0078735,0.01499896217,591.0078735,0.01296469662,591.0078735,0.01274216268,591.0078735,0.0131686395,591.0078735,0.01255533937,591.0078735,0.01258547604
589.9675903,0.01442888472,589.9675903,0.01241424866,589.9675903,0.01260991208,589.9675903,0.01237338968,589.9675903,0.01247639675,589.9675903,0.0120072728
588.927063,0.01382379793,588.927063,0.01329185162,588.927063,0.0123162372,588.927063,0.01241211779,588.927063,0.01252232678,588.927063,0.01158307772
588.0349731,0.01404547039,588.0349731,0.01247511804,588.0349731,0.01232486591,588.0349731,0.01194327604,588.0349731,0.01258022618,588.0349731,0.01165967714
586.9938965,0.01412183698,586.9938965,0.01333952323,586.9938965,0.01226303261,586.9938965,0.01211122982,586.9938965,0.01246161107,586.9938965,0.01164723281
585.9525757,0.01338330284,585.9525757,0.01252627,585.9525757,0.0119806882,585.9525757,0.01185635757,585.9525757,0.01206994709,585.9525757,0.01192989293
585.0597534,0.01365811937,585.0597534,0.01248044614,585.0597534,0.01193760894,585.0597534,0.01157302782,585.0597534,0.01217256207,585.0597534,0.01150032412
584.0179443,0.01390047371,584.0179443,0.01270644367,584.0179443,0.01234425325,584.0179443,0.01199963503,584.0179443,0.01203489676,584.0179443,0.0113400463
582.9758301,0.01347717643,582.9758301,0.01176671684,582.9758301,0.01212996989,582.9758301,0.0115083782,582.9758301,0.01157693565,582.9758301,0.01111364178
581.9334106,0.01297123078,581.9334106,0.01202049851,581.9334106,0.01228175219,581.9334106,0.01126950607,581.9334106,0.0110383071,581.9334106,0.01087788027
581.0397339,0.01350281108,581.0397339,0.01173344534,581.0397339,0.01175727509,581.0397339,0.0112062823,581.0397339,0.01143292058,581.0397339,0.01097819675
579.9968262,0.01326099876,579.9968262,0.01198470686,579.9968262,0.01154445019,579.9968262,0.01084223576,579.9968262,0.01169499103,579.9968262,0.01115361229
578.9536743,0.01279065385,578.9536743,0.01167480741,578.9536743,0.01185457502,578.9536743,0.0111740632,578.9536743,0.01117988024,578.9536743,0.01056924742
578.0592651,0.01249941438,578.0592651,0.01130678039,578.0592651,0.01107696816,578.0592651,0.01064298954,578.0592651,0.01102686301,578.0592651,0.01067466568
577.015625,0.01256495807,577.015625,0.0118297562,577.015625,0.01055755094,577.015625,0.01060725749,577.015625,0.01041541062,577.015625,0.01016998477
575.9716187,0.01260969881,575.9716187,0.01118343975,575.9716187,0.0106718801,575.9716187,0.01016097516,575.9716187,0.01029242855,575.9716187,0.01002293825
574.9274292,0.01221774146,574.9274292,0.01099399291,574.9274292,0.01077220123,574.9274292,0.01028778963,574.9274292,0.01029470842,574.9274292,0.01003917772
574.0321655,0.01199625526,574.0321655,0.01064842753,574.0321655,0.01043413021,574.0321655,0.01011932082,574.0321655,0.01040562708,574.0321655,0.009870777838
572.9874268,0.01248625387,572.9874268,0.01030324399,572.9874268,0.01021561865,572.9874268,0.009612902999,572.9874268,0.009738657624,572.9874268,0.009406389669
571.9424438,0.01152174827,571.9424438,0.01033614017,571.9424438,0.01024702471,571.9424438,0.009503323585,571.9424438,0.009455832653,571.9424438,0.009526872076
571.0465088,0.0117794564,571.0465088,0.0102218464,571.0465088,0.01017337665,571.0465088,0.009533804841,571.0465088,0.009610944428,571.0465088,0.009109136648
570.0009766,0.011109313,570.0009766,0.009174805135,570.0009766,0.009630396962,570.0009766,0.009199948981,570.0009766,0.009152808227,570.0009766,0.008775368333
568.9552002,0.0114080729,568.9552002,0.009525285102,568.9552002,0.008958643302,568.9552002,0.008881461807,568.9552002,0.009006212465,568.9552002,0.008552172221
568.0585938,0.01051986311,568.0585938,0.009161189198,568.0585938,0.009111382999,568.0585938,0.008629268967,568.0585938,0.00871889852,568.0585938,0.008449353278
567.0123291,0.010652964,567.0123291,0.00890796259,567.0123291,0.00912211556,567.0123291,0.008683139458,567.0123291,0.008476196788,567.0123291,0.008085446432
565.9658203,0.01021434646,565.9658203,0.008775130846,565.9658203,0.008216536604,565.9658203,0.008431352675,565.9658203,0.008337507956,565.9658203,0.007503296249
565.0685425,0.009969087318,565.0685425,0.008512546308,565.0685425,0.008290856145,565.0685425,0.007739973255,565.0685425,0.008114588447,565.0685425,0.007409072481
564.0215454,0.009544124827,564.0215454,0.007994101383,564.0215454,0.008044913411,564.0215454,0.007462396752,564.0215454,0.00757949613,564.0215454,0.007166391239
562.9742432,0.009419140406,562.9742432,0.00795125775,562.9742432,0.007539142389,562.9742432,0.007436694577,562.9742432,0.00769430818,562.9742432,0.0070075728
561.9266968,0.009224617854,561.9266968,0.007550389506,561.9266968,0.007549230475,561.9266968,0.007188444957,561.9266968,0.007085185498,561.9266968,0.006731305271
561.0285645,0.008743751794,561.0285645,0.007357123774,561.0285645,0.006843395531,561.0285645,0.006640139967,561.0285645,0.006752653513,561.0285645,0.006634515245
559.9804688,0.008759995922,559.9804688,0.006925292313,559.9804688,0.006757727824,559.9804688,0.006466826424,559.9804688,0.006556168199,559.9804688,0.006442864891
558.9321899,0.008299510926,558.9321899,0.006609125063,558.9321899,0.006812287029,558.9321899,0.006337129511,558.9321899,0.006267213728,558.9321899,0.006328488234
558.0333862,0.00789642334,558.0333862,0.006646133028,558.0333862,0.006185808685,558.0333862,0.006005405914,558.0333862,0.005948953331,558.0333862,0.005992492661
556.9845581,0.007518835366,556.9845581,0.006029448006,556.9845581,0.005866505671,556.9845581,0.005621354561,556.9845581,0.005604336038,556.9845581,0.005212727003
555.9354858,0.007301548496,555.9354858,0.005836647935,555.9354858,0.005884400569,555.9354858,0.005442575552,555.9354858,0.005217390601,555.9354858,0.004950035363
555.0360718,0.007068925072,555.0360718,0.005427083932,555.0360718,0.006000235211,555.0360718,0.00501824636,555.0360718,0.005069261417,555.0360718,0.004868614487
553.9865112,0.006523950491,553.9865112,0.005398566835,553.9865112,0.005039484706,553.9865112,0.0045435559,553.9865112,0.005025290884,553.9865112,0.004533824977
552.9367065,0.00638598809,552.9367065,0.005100035574,552.9367065,0.004693049472,552.9367065,0.004461243749,552.9367065,0.00463676732,552.9367065,0.004429181106
552.0366821,0.006154511124,552.0366821,0.004857829306,552.0366821,0.004602468107,552.0366821,0.004188132938,552.0366821,0.004277477507,552.0366821,0.003976371605
550.9863281,0.005904263817,550.9863281,0.004911731463,550.9863281,0.004045214038,550.9863281,0.003992751706,550.9863281,0.004149138462,550.9863281,0.003528052941
549.935791,0.005787248258,549.935791,0.004363049287,549.935791,0.003681792179,549.935791,0.00338647305,549.935791,0.003696986241,549.935791,0.003154972335
549.0350952,0.005590018816,549.0350952,0.003816965735,549.0350952,0.003789102426,549.0350952,0.003372907173,549.0350952,0.003331768792,549.0350952,0.00321197533
547.9840698,0.005267485511,547.9840698,0.003827959998,547.9840698,0.003447837895,547.9840698,0.003263613209,547.9840698,0.003684533294,547.9840698,0.002887449926
546.9327393,0.005197584629,546.9327393,0.003450525226,546.9327393,0.003270733403,546.9327393,0.002915333724,546.9327393,0.003057203256,546.9327393,0.002554756356
546.0314331,0.004622299224,546.0314331,0.003389421152,546.0314331,0.003189966083,546.0314331,0.002718466567,546.0314331,0.002800891874,546.0314331,0.002453529742
544.9796143,0.004339046776,544.9796143,0.003363463562,544.9796143,0.003073392203,544.9796143,0.002667883178,544.9796143,0.002819963498,544.9796143,0.002133056289
543.9276123,0.004261740018,543.9276123,0.003040180542,543.9276123,0.002863997826,543.9276123,0.00240709004,543.9276123,0.002599154599,543.9276123,0.002202439588
543.0256348,0.004317921586,543.0256348,0.00296571129,543.0256348,0.002792450599,543.0256348,0.002581525128,543.0256348,0.002509555547,543.0256348,0.002040406456
541.9730835,0.004094860516,541.9730835,0.002676973352,541.9730835,0.002429840853,541.9730835,0.002126449021,541.9730835,0.002231944585,541.9730835,0.001860053279
541.0707397,0.004000432789,541.0707397,0.002945642918,541.0707397,0.002523719566,541.0707397,0.002141354606,541.0707397,0.00232156436,541.0707397,0.001927702921
540.0177612,0.00407711789,540.0177612,0.002906942274,540.0177612,0.002826190554,540.0177612,0.002177723683,540.0177612,0.002809255151,540.0177612,0.002190940082
538.9644775,0.004232123028,538.9644775,0.003285704413,538.9644775,0.002984659746,538.9644775,0.002287577605,538.9644775,0.002823819406,538.9644775,0.001990812132
538.0615234,0.004271883052,538.0615234,0.003128350945,538.0615234,0.003235628828,538.0615234,0.002433354966,538.0615234,0.002717111958,538.0615234,0.00233704946
537.0078125,0.004608066753,537.0078125,0.003186758608,537.0078125,0.003097794252,537.0078125,0.00269273133,537.0078125,0.002788490616,537.0078125,0.002356230747
535.9537964,0.005403651856,535.9537964,0.003615852445,535.9537964,0.003362081014,535.9537964,0.003021177603,535.9537964,0.003084784839,535.9537964,0.002615456935
535.0502319,0.005777017213,535.0502319,0.003891006578,535.0502319,0.003657853231,535.0502319,0.003319378477,535.0502319,0.003602044657,535.0502319,0.002891619457
533.9957886,0.005569304805,533.9957886,0.004233534914,533.9957886,0.004113675561,533.9957886,0.003980682231,533.9957886,0.003799600061,533.9957886,0.003284269944
532.9411011,0.006691398565,532.9411011,0.004881755915,532.9411011,0.004551638849,532.9411011,0.004561893176,532.9411011,0.004558806308,532.9411011,0.004063269123
532.0368652,0.006645817775,532.0368652,0.00528401928,532.0368652,0.005192371551,532.0368652,0.004775012843,532.0368652,0.004860604182,532.0368652,0.004544942174
530.9816895,0.007298442069,530.9816895,0.006038346328,530.9816895,0.005627753213,530.9816895,0.005288106855,530.9816895,0.005563588813,530.9816895,0.005095740315
529.9262695,0.007994707674,529.9262695,0.006762618199,529.9262695,0.0068627242,529.9262695,0.006407345645,529.9262695,0.006729675457,529.9262695,0.00589862233
529.0214233,0.008517693728,529.0214233,0.007597961929,529.0214233,0.007088527083,529.0214233,0.007004389539,529.0214233,0.007288175635,529.0214233,0.006480200216
527.9655762,0.01009981986,527.9655762,0.008163014427,527.9655762,0.008251782507,527.9655762,0.007566878572,527.9655762,0.00755344471,527.9655762,0.00705337571
527.0603027,0.01031427085,527.0603027,0.008902704343,527.0603027,0.009250849485,527.0603027,0.008937028237,527.0603027,0.008523950353,527.0603027,0.008042777888
526.0039673,0.0113698598,526.0039673,0.009804792702,526.0039673,0.009828145616,526.0039673,0.009508165531,526.0039673,0.009185010567,526.0039673,0.008724682033
524.9473877,0.01273581851,524.9473877,0.01075481996,524.9473877,0.01039984729,524.9473877,0.009991336614,524.9473877,0.01049183216,524.9473877,0.009637515992
524.0415649,0.01292866655,524.0415649,0.01140328869,524.0415649,0.01110554207,524.0415649,0.01066511497,524.0415649,0.01077010483,524.0415649,0.0105245309
522.9844971,0.01367526967,522.9844971,0.01280976925,522.9844971,0.01251188293,522.9844971,0.01169852726,522.9844971,0.01235325541,522.9844971,0.01137275621
521.9271851,0.01465879101,521.9271851,0.01319727115,521.9271851,0.01379210595,521.9271851,0.01291026548,521.9271851,0.01295410842,521.9271851,0.01241672598
521.020752,0.01584489085,521.020752,0.01434192248,521.020752,0.01480489783,521.020752,0.01362235192,521.020752,0.01436292566,521.020752,0.0135925971
519.9630127,0.01640134677,519.9630127,0.01515823789,519.9630127,0.0148773808,519.9630127,0.01475144085,519.9630127,0.01492337789,519.9630127,0.01442147233
519.0561523,0.01771702059,519.0561523,0.01550542563,519.0561523,0.0156116467,519.0561523,0.01542548928,519.0561523,0.01612293534,519.0561523,0.01486259419
517.9979858,0.01811378449,517.9979858,0.01678063348,517.9979858,0.01695359126,517.9979858,0.01619416103,517.9979858,0.01638804004,517.9979858,0.01608110964
516.9395142,0.01978464052,516.9395142,0.01804035529,516.9395142,0.0172800757,516.9395142,0.01727754436,516.9395142,0.01757443137,516.9395142,0.01678165607
516.0320435,0.01971350051,516.0320435,0.0186090637,516.0320435,0.01817092299,516.0320435,0.01784374192,516.0320435,0.01813624054,516.0320435,0.01743178256
514.9731445,0.02155570686,514.9731445,0.01930325665,514.9731445,0.01904085651,514.9731445,0.01862924732,514.9731445,0.01886806637,514.9731445,0.01835928857
514.0653687,0.02099519223,514.0653687,0.01981436089,514.0653687,0.01934065856,514.0653687,0.01960155927,514.0653687,0.01947911642,514.0653687,0.01882064901
513.0059814,0.02176383324,513.0059814,0.02055113949,513.0059814,0.02022923902,513.0059814,0.01993736066,513.0059814,0.01985004544,513.0059814,0.01952021569
511.9463806,0.02252047881,511.9463806,0.02113385312,511.9463806,0.02157912962,511.9463806,0.02089011855,511.9463806,0.02066696249,511.9463806,0.02025275305
511.0379639,0.02390924655,511.0379639,0.02167288586,511.0379639,0.02175455354,511.0379639,0.0211254023,511.0379639,0.02181426808,511.0379639,0.02075156197
509.9779358,0.02406295948,509.9779358,0.02282465622,509.9779358,0.02247137949,509.9779358,0.021590719,509.9779358,0.02183917537,509.9779358,0.02182256989
509.0691223,0.02372567728,509.0691223,0.02276635729,509.0691223,0.02302517742,509.0691223,0.02179251984,509.0691223,0.0223924946,509.0691223,0.02174802125
508.0086365,0.02441175655,508.0086365,0.0230866503,508.0086365,0.0229227487,508.0086365,0.02253934555,508.0086365,0.02347299829,508.0086365,0.02259927802
506.9479065,0.02498421259,506.9479065,0.02376939543,506.9479065,0.02323441952,506.9479065,0.02303863317,506.9479065,0.023245316,506.9479065,0.02275304496
506.0385132,0.02636824176,506.0385132,0.02389992028,506.0385132,0.0238256976,506.0385132,0.02323414572,506.0385132,0.02336852439,506.0385132,0.02326508798
504.9773254,0.02593674511,504.9773254,0.02425920777,504.9773254,0.02461366914,504.9773254,0.02355754562,504.9773254,0.02398720384,504.9773254,0.02383138426
504.0675659,0.02581610158,504.0675659,0.02504582703,504.0675659,0.02502572723,504.0675659,0.02430007793,504.0675659,0.02480290271,504.0675659,0.02357295901
503.0059509,0.02597576566,503.0059509,0.02461690083,503.0059509,0.02494146861,503.0059509,0.02414455637,503.0059509,0.0245467741,503.0059509,0.02383108437
501.9440918,0.02592872083,501.9440918,0.02488261089,501.9440918,0.02489067055,501.9440918,0.02437128685,501.9440918,0.02484404296,501.9440918,0.02388400212
501.0337524,0.02633350343,501.0337524,0.02531489916,501.0337524,0.02502753772,501.0337524,0.02446099371,501.0337524,0.02481551096,501.0337524,0.02425332181
499.9714355,0.02707934007,499.9714355,0.0250782147,499.9714355,0.02485574782,499.9714355,0.02458372712,499.9714355,0.02472814173,499.9714355,0.02444371395
499.06073,0.02668724023,499.06073,0.02542711608,499.06073,0.02565902099,499.06073,0.0245668795,499.06073,0.02496227808,499.06073,0.02453568019
497.9979858,0.02661053091,497.9979858,0.02557428181,497.9979858,0.02523824014,497.9979858,0.02480136789,497.9979858,0.02524861135,497.9979858,0.02452732623
496.9350281,0.02654976584,496.9350281,0.02530312911,496.9350281,0.02519711666,496.9350281,0.02506971359,496.9350281,0.02554586716,496.9350281,0.02456627786
496.0237122,0.02683695592,496.0237122,0.02526433207,496.0237122,0.02536165901,496.0237122,0.02483927459,496.0237122,0.02511696704,496.0237122,0.02490377426
494.9603271,0.02653025649,494.9603271,0.02515128069,494.9603271,0.02502838708,494.9603271,0.02472789586,494.9603271,0.02490678988,494.9603271,0.02489220537
494.048645,0.02628490515,494.048645,0.0249917265,494.048645,0.02556445263,494.048645,0.02457465976,494.048645,0.02470265888,494.048645,0.02414310537
492.9848022,0.02630542219,492.9848022,0.02478103153,492.9848022,0.02443738841,492.9848022,0.02419701964,492.9848022,0.02444423363,492.9848022,0.02418144792
492.0727539,0.02585931495,492.0727539,0.02450842783,492.0727539,0.02439491637,492.0727539,0.02402867749,492.0727539,0.02472658083,492.0727539,0.02440274693
491.0084839,0.02608955465,491.0084839,0.02467906661,491.0084839,0.02458945103,491.0084839,0.02391162515,491.0084839,0.02454614453,491.0084839,0.02383510396
489.9440002,0.02559627593,489.9440002,0.02430793457,489.9440002,0.02423479035,489.9440002,0.02371165343,489.9440002,0.024051385,489.9440002,0.02373035252
489.0313721,0.02648452669,489.0313721,0.02406038716,489.0313721,0.02395815216,489.0313721,0.0235529542,489.0313721,0.02370088175,489.0313721,0.02349769883
487.9664612,0.02504933812,487.9664612,0.02376600541,487.9664612,0.02405518852,487.9664612,0.02361753583,487.9664612,0.02366258204,487.9664612,0.02312066779
487.0534668,0.02460123226,487.0534668,0.0233321134,487.0534668,0.02370689623,487.0534668,0.02280836925,487.0534668,0.02363008261,487.0534668,0.02259745076
485.9880981,0.02437413484,485.9880981,0.0229302533,485.9880981,0.02306306548,485.9880981,0.02230814658,485.9880981,0.02316746488,485.9880981,0.02292094752
485.0747681,0.02413410321,485.0747681,0.02283990756,485.0747681,0.02266371809,485.0747681,0.02228629217,485.0747681,0.02301802486,485.0747681,0.02207358368
484.0089722,0.02421593294,484.0089722,0.02267877199,484.0089722,0.02258763462,484.0089722,0.02218790725,484.0089722,0.02252819389,484.0089722,0.02192797884
482.9429626,0.0243032258,482.9429626,0.02280686796,482.9429626,0.02287870646,482.9429626,0.02201067284,482.9429626,0.02224648185,482.9429626,0.02214393951
482.0290833,0.02340119705,482.0290833,0.02198341489,482.0290833,0.02186381072,482.0290833,0.02155883424,482.0290833,0.02186884731,482.0290833,0.02126954123
480.9626465,0.02296303026,480.9626465,0.02195400745,480.9626465,0.02167489938,480.9626465,0.02138145082,480.9626465,0.02158342674,480.9626465,0.02143602818
480.0483704,0.02295219526,480.0483704,0.02160396799,480.0483704,0.02151653543,480.0483704,0.02104252204,480.0483704,0.02174225077,480.0483704,0.02132579125
478.9815063,0.02264781855,478.9815063,0.02139578015,478.9815063,0.02157434076,478.9815063,0.02079943568,478.9815063,0.02114485949,478.9815063,0.02088164538
478.0668945,0.02285949886,478.0668945,0.02134387195,478.0668945,0.02130765654,478.0668945,0.02085657604,478.0668945,0.02101391181,478.0668945,0.0205312185
476.9996033,0.02255414985,476.9996033,0.02181647345,476.9996033,0.02117769234,476.9996033,0.02091146819,476.9996033,0.02135154046,476.9996033,0.02084484324
475.9321289,0.02284547314,475.9321289,0.02173125744,475.9321289,0.02174597979,475.9321289,0.02107787319,475.9321289,0.02152893879,475.9321289,0.0216983296
475.0169373,0.02321937308,475.0169373,0.02187265828,475.0169373,0.02147731371,475.0169373,0.02116434649,475.0169373,0.02159028314,475.0169373,0.02147274464
473.9490356,0.02330425382,473.9490356,0.02209188603,473.9490356,0.02188798413,473.9490356,0.02136627771,473.9490356,0.022167366,473.9490356,0.02134819515
473.0334778,0.0237263348,473.0334778,0.02255180478,473.0334778,0.02219700627,473.0334778,0.02222275175,473.0334778,0.02241541632,473.0334778,0.02212887444
471.9651489,0.02479780465,471.9651489,0.02313781157,471.9651489,0.02288882993,471.9651489,0.02298330702,471.9651489,0.02302504145,471.9651489,0.02234002948
471.0492859,0.02488071844,471.0492859,0.02398118563,471.0492859,0.0243213214,471.0492859,0.02333197743,471.0492859,0.02377292328,471.0492859,0.02293101884
469.9805298,0.02581250295,469.9805298,0.02456649579,469.9805298,0.02437183447,469.9805298,0.02438095212,469.9805298,0.02425646968,469.9805298,0.02412808314
469.0643005,0.02691009641,469.0643005,0.02512110956,469.0643005,0.02540455572,469.0643005,0.02474173345,469.0643005,0.02540532313,469.0643005,0.02466890216
467.9951477,0.02726220898,467.9951477,0.0258641243,467.9951477,0.02637368813,467.9951477,0.02534675784,467.9951477,0.02605093457,467.9951477,0.02576107904
466.9257507,0.02828453854,466.9257507,0.02703600377,466.9257507,0.02751020901,466.9257507,0.02643360198,466.9257507,0.02706341445,466.9257507,0.0268326588
466.0089722,0.02907522395,466.0089722,0.02841382846,466.0089722,0.02756688744,466.0089722,0.02698889747,466.0089722,0.02753889188,466.0089722,0.0275820028
464.9391785,0.0296790041,464.9391785,0.02864185907,464.9391785,0.02840064652,464.9391785,0.02855706401,464.9391785,0.02910780348,464.9391785,0.02782138251
464.0220642,0.03069195896,464.0220642,0.02994147874,464.0220642,0.02918390371,464.0220642,0.02868521772,464.0220642,0.02905548923,464.0220642,0.02912820317
462.9518738,0.03105788492,462.9518738,0.03004648909,462.9518738,0.03013582341,462.9518738,0.02977302857,462.9518738,0.03025223315,462.9518738,0.02961304225
462.0343933,0.03209379688,462.0343933,0.03070562705,462.0343933,0.03044108115,462.0343933,0.03004685044,462.0343933,0.03098362312,462.0343933,0.02977569029
460.9637756,0.03364859521,460.9637756,0.03140124306,460.9637756,0.03111680783,460.9637756,0.03070948832,460.9637756,0.03117267787,460.9637756,0.03048728406
460.0459595,0.03307667747,460.0459595,0.03174543381,460.0459595,0.0319400318,460.0459595,0.03168147057,460.0459595,0.03199378029,460.0459595,0.03126046434
458.9749451,0.03418533131,458.9749451,0.03293389827,458.9749451,0.03257788718,458.9749451,0.03230639547,458.9749451,0.03326561302,458.9749451,0.03222138435
458.0567932,0.03471255302,458.0567932,0.03318331763,458.0567932,0.03361282125,458.0567932,0.032779973,458.0567932,0.03317719698,458.0567932,0.03251572326
456.9853821,0.03500847518,456.9853821,0.03368188068,456.9853821,0.03360227495,456.9853821,0.03329730406,456.9853821,0.03412764147,456.9853821,0.03280710801
456.066864,0.03536842763,456.066864,0.03426067531,456.066864,0.03401074931,456.066864,0.03366498649,456.066864,0.03399081901,456.066864,0.03387474641
454.9950562,0.03596432135,454.9950562,0.03447335586,454.9950562,0.03518174961,454.9950562,0.03404179588,454.9950562,0.03450364992,454.9950562,0.03389612585
454.0762024,0.03620636836,454.0762024,0.0351042822,454.0762024,0.03514882177,454.0762024,0.03470736742,454.0762024,0.034892831,454.0762024,0.03416813537
453.0039978,0.03634561226,453.0039978,0.03534225374,453.0039978,0.03520122916,453.0039978,0.03473022208,453.0039978,0.0350246951,453.0039978,0.03458614275
451.9315796,0.0380673632,451.9315796,0.03621776402,451.9315796,0.03562292829,451.9315796,0.03482436389,451.9315796,0.03568134829,451.9315796,0.03496855125
451.012207,0.03705596551,451.012207,0.03579574078,451.012207,0.03639706224,451.012207,0.03524867073,451.012207,0.0362476483,451.012207,0.03515547514
449.9393921,0.03751895204,449.9393921,0.03625400737,449.9393921,0.03653690219,449.9393921,0.03548405692,449.9393921,0.03584274277,449.9393921,0.03551414236
449.0196838,0.03765076771,449.0196838,0.03641575575,449.0196838,0.03680845723,449.0196838,0.0357564725,449.0196838,0.03611645475,449.0196838,0.03575194627
447.9464722,0.0375943929,447.9464722,0.03648895025,447.9464722,0.03633069247,447.9464722,0.03655070066,447.9464722,0.0362059474,447.9464722,0.03587074578
447.0263977,0.03775867447,447.0263977,0.03677617013,447.0263977,0.03638833761,447.0263977,0.03601890802,447.0263977,0.03654920682,447.0263977,0.03594207764
445.9528198,0.03800715134,445.9528198,0.03687402606,445.9528198,0.03683533892,445.9528198,0.03621182591,445.9528198,0.03733721375,445.9528198,0.03606019542
445.0324097,0.03896835074,445.0324097,0.0375829041,445.0324097,0.03769568354,445.0324097,0.03645995259,445.0324097,0.03753475472,445.0324097,0.03629427776
443.9584351,0.03848045692,443.9584351,0.03702346236,443.9584351,0.03698566183,443.9584351,0.03635028377,443.9584351,0.03736530989,443.9584351,0.03639135137
443.0377197,0.03839555383,443.0377197,0.03691441193,443.0377197,0.03737349063,443.0377197,0.03664022684,443.0377197,0.03769294545,443.0377197,0.03618324175
441.9633179,0.03795007989,441.9633179,0.03782198951,441.9633179,0.03748288378,441.9633179,0.0365581885,441.9633179,0.03713434562,441.9633179,0.0362567082
441.0422668,0.03866357729,441.0422668,0.0370419845,441.0422668,0.03681451455,441.0422668,0.03663064912,441.0422668,0.03710274026,441.0422668,0.03657435253
439.9674988,0.03849123046,439.9674988,0.0377368778,439.9674988,0.0372326225,439.9674988,0.03650643677,439.9674988,0.03730533645,439.9674988,0.03673655912
439.0461121,0.03823617473,439.0461121,0.03720509633,439.0461121,0.03763786331,439.0461121,0.03661972284,439.0461121,0.03734059632,439.0461121,0.03733851016
437.9709778,0.03866137192,437.9709778,0.03716795892,437.9709778,0.03710172325,437.9709778,0.03656880558,437.9709778,0.03710767254,437.9709778,0.037149176
437.0492554,0.03817591071,437.0492554,0.03697844595,437.0492554,0.03690327704,437.0492554,0.03710995615,437.0492554,0.03687242046,437.0492554,0.03664873168
435.9737244,0.03802805766,435.9737244,0.03677577525,435.9737244,0.03669985384,435.9737244,0.03606748208,435.9737244,0.03679620102,435.9737244,0.03600383177
435.0516663,0.03859145567,435.0516663,0.03698106855,435.0516663,0.03652282432,435.0516663,0.03591978177,435.0516663,0.03661676496,435.0516663,0.03594525531
433.975769,0.03812978789,433.975769,0.0367875807,433.975769,0.03624469042,433.975769,0.03645919263,433.975769,0.03636646643,433.975769,0.03569638357
433.0533752,0.03755741939,433.0533752,0.03649590537,433.0533752,0.03624947742,433.0533752,0.03586475551,433.0533752,0.03639132157,433.0533752,0.03612528741
431.9770813,0.03853499144,431.9770813,0.03604523093,431.9770813,0.03667132184,431.9770813,0.03550256789,431.9770813,0.03638417274,431.9770813,0.03588058427
431.0543823,0.03742574528,431.0543823,0.0366486758,431.0543823,0.0366121456,431.0543823,0.03608655185,431.0543823,0.03623692691,431.0543823,0.035505265
429.9777222,0.03711302951,429.9777222,0.03647048399,429.9777222,0.03604441509,429.9777222,0.0353574194,429.9777222,0.03620763496,429.9777222,0.03561424464
429.0546875,0.03723115474,429.0546875,0.03638797253,429.0546875,0.03585103527,429.0546875,0.03533854708,429.0546875,0.03584814072,429.0546875,0.03527958319
427.9776611,0.03794290498,427.9776611,0.03582964465,427.9776611,0.03548251092,427.9776611,0.0354234986,427.9776611,0.03587434441,427.9776611,0.03480821103
427.0543213,0.03693132102,427.0543213,0.03573901951,427.0543213,0.03597975895,427.0543213,0.03490234166,427.0543213,0.0359184593,427.0543213,0.03513097018
425.9768982,0.03697912395,425.9768982,0.03601555899,425.9768982,0.03564535081,425.9768982,0.03512019292,425.9768982,0.03572277352,425.9768982,0.03509257734
425.0532227,0.03798449039,425.0532227,0.03608644009,425.0532227,0.03583121672,425.0532227,0.03511121497,425.0532227,0.03605811298,425.0532227,0.03506229818
423.9754333,0.03645989671,423.9754333,0.03528340161,423.9754333,0.03567954898,423.9754333,0.03458916768,423.9754333,0.03531159088,423.9754333,0.03468866646
423.0514526,0.03657046705,423.0514526,0.03564462066,423.0514526,0.03513332829,423.0514526,0.03496987,423.0514526,0.03549863771,423.0514526,0.03478905559
421.9732666,0.03753718361,421.9732666,0.03559277952,421.9732666,0.03512241319,421.9732666,0.0344991684,421.9732666,0.03543588519,421.9732666,0.0350474529
421.0489807,0.03632374108,421.0489807,0.03489117697,421.0489807,0.03466368467,421.0489807,0.03436404467,421.0489807,0.03487502038,421.0489807,0.03490329534
419.9704285,0.03621579334,419.9704285,0.03487529978,419.9704285,0.03508205339,419.9704285,0.0341825597,419.9704285,0.03458986804,419.9704285,0.03433712199
419.0458069,0.03586107492,419.0458069,0.03484500572,419.0458069,0.0349990502,419.0458069,0.03388353437,419.0458069,0.03470613435,419.0458069,0.03438334912
417.9669189,0.03601024672,417.9669189,0.03515856341,417.9669189,0.03470251709,417.9669189,0.0341624245,417.9669189,0.03467156366,417.9669189,0.0341793932
417.0419922,0.03543524072,417.0419922,0.03453635797,417.0419922,0.03430821002,417.0419922,0.03376214579,417.0419922,0.03455942869,417.0419922,0.03394776583
415.9627075,0.03520296887,415.9627075,0.03415511549,415.9627075,0.03405030817,415.9627075,0.03365043923,415.9627075,0.03415152803,415.9627075,0.0336494036
415.0374756,0.03525945172,415.0374756,0.03481070697,415.0374756,0.03399065137,415.0374756,0.03364694491,415.0374756,0.0339762345,415.0374756,0.0335181281
413.9578247,0.03507621586,413.9578247,0.03376927972,413.9578247,0.03344976157,413.9578247,0.03313839063,413.9578247,0.03396786377,413.9578247,0.03337400407
413.0322876,0.03545515239,413.0322876,0.03360037506,413.0322876,0.03326410428,413.0322876,0.03337109461,413.0322876,0.03355646506,413.0322876,0.03313713148
411.952301,0.03455749527,411.952301,0.03336628899,411.952301,0.03315168992,411.952301,0.03276760876,411.952301,0.03342913091,411.952301,0.03309774026
411.0264282,0.0340558812,411.0264282,0.03342116252,411.0264282,0.03294389695,411.0264282,0.03255514428,411.0264282,0.03333361074,411.0264282,0.03267569467
409.9460754,0.03414993361,409.9460754,0.03314833716,409.9460754,0.03310408071,409.9460754,0.03226512671,409.9460754,0.03305863217,409.9460754,0.03250905499
409.0198975,0.03377669305,409.0198975,0.03280831128,409.0198975,0.03253154084,409.0198975,0.0321615003,409.0198975,0.03289092332,409.0198975,0.03245105967
407.9391785,0.03367743269,407.9391785,0.03228506446,407.9391785,0.03208440542,407.9391785,0.03172145784,407.9391785,0.03245496377,407.9391785,0.03201074898
407.0126953,0.03327938914,407.0126953,0.03195178881,407.0126953,0.03193771839,407.0126953,0.03185400367,407.0126953,0.0321916379,407.0126953,0.03163391352
405.9316406,0.03294115886,405.9316406,0.03206118941,405.9316406,0.0318717733,405.9316406,0.0309211053,405.9316406,0.03185129911,405.9316406,0.03123083897
405.0048523,0.03355571255,405.0048523,0.03164482489,405.0048523,0.03180495277,405.0048523,0.03060603887,405.0048523,0.03140052035,405.0048523,0.03118472174
403.9234009,0.0322108455,403.9234009,0.03121142276,403.9234009,0.03150591627,403.9234009,0.0305001419,403.9234009,0.03094556741,403.9234009,0.03065815009
402.9963379,0.03174654767,402.9963379,0.0306015946,402.9963379,0.0306136217,402.9963379,0.02993454412,402.9963379,0.03079898655,402.9963379,0.03042011708
402.0690918,0.03156542778,402.0690918,0.03032759018,402.0690918,0.03012311459,402.0690918,0.02980144508,402.0690918,0.03041181713,402.0690918,0.03076080605
400.9871521,0.03102579899,400.9871521,0.03014106676,400.9871521,0.03035101853,400.9871521,0.02999448031,400.9871521,0.03038652427,400.9871521,0.03002329916
400.0596313,0.03105115518,400.0596313,0.02999855764,400.0596313,0.02986840531,400.0596313,0.02932091057,400.0596313,0.03025792167,400.0596313,0.02962853387
398.9773254,0.03156679124,398.9773254,0.02961645089,398.9773254,0.02944294736,398.9773254,0.0290208403,398.9773254,0.02994430624,398.9773254,0.02940544114
398.0494995,0.03075322136,398.0494995,0.02937702276,398.0494995,0.02925948985,398.0494995,0.02870114706,398.0494995,0.02980807237,398.0494995,0.02963756956
396.9668579,0.03119904548,396.9668579,0.02906099707,396.9668579,0.02898555622,396.9668579,0.0285128057,396.9668579,0.03006507643,396.9668579,0.02924797125
396.0387268,0.03035945818,396.0387268,0.02882923372,396.0387268,0.02911145613,396.0387268,0.0284608677,396.0387268,0.0291133672,396.0387268,0.02887999825
394.955719,0.03131248429,394.955719,0.02865861729,394.955719,0.02911145613,394.955719,0.02800738066,394.955719,0.02911392041,394.955719,0.02886339836
394.0273132,0.03059395589,394.0273132,0.0287219435,394.0273132,0.02851695195,394.0273132,0.02833692357,394.0273132,0.02899955772,394.0273132,0.02976939827
392.9439697,0.02954642661,392.9439697,0.02865651436,392.9439697,0.02848646231,392.9439697,0.02826227061,392.9439697,0.0292256549,392.9439697,0.02861564793
392.0152283,0.03063248284,392.0152283,0.02927729487,392.0152283,0.02821110934,392.0152283,0.02784922905,392.0152283,0.02886265144,392.0152283,0.02896054089
390.9315491,0.03015668876,390.9315491,0.02910074405,390.9315491,0.02867553942,390.9315491,0.02814882435,390.9315491,0.02938156575,390.9315491,0.02921026014
390.002533,0.02949647047,390.002533,0.029157741,390.002533,0.02914356813,390.002533,0.02823867835,390.002533,0.02925433964,390.002533,0.02910932526
389.0733948,0.03020749614,389.0733948,0.02855344117,389.0733948,0.02894227766,389.0733948,0.02856391855,389.0733948,0.02907431126,389.0733948,0.02969729714
387.9892273,0.03096038289,387.9892273,0.02850313112,387.9892273,0.0288045872,387.9892273,0.0283342991,387.9892273,0.02918620035,387.9892273,0.03021321259
387.0597839,0.03121996298,387.0597839,0.02885803208,387.0597839,0.02931005508,387.0597839,0.02836461179,387.0597839,0.02997780964,387.0597839,0.02989466675
385.9752502,0.03052480146,385.9752502,0.02901082113,385.9752502,0.02896997705,385.9752502,0.02878956683,385.9752502,0.02988082916,385.9752502,0.03016293235
385.0455017,0.03040776402,385.0455017,0.02921563201,385.0455017,0.02915289626,385.0455017,0.02907691337,385.0455017,0.03037414327,385.0455017,0.03071807325
383.9606628,0.03100959025,383.9606628,0.0297856424,383.9606628,0.02942308597,383.9606628,0.02978331409,383.9606628,0.03036681376,383.9606628,0.03055326827
383.0306396,0.03103650361,383.0306396,0.02980685234,383.0306396,0.02958014794,383.0306396,0.02957227826,383.0306396,0.03063423187,383.0306396,0.03095321171
381.9454346,0.0311460346,381.9454346,0.0301420372,381.9454346,0.02991349623,381.9454346,0.02957045101,381.9454346,0.03096844442,381.9454346,0.03157408535
381.0151367,0.0315110907,381.0151367,0.03120410815,381.0151367,0.0306173712,381.0151367,0.03006038815,381.0151367,0.03177862987,381.0151367,0.0318595469
379.9295959,0.03288682178,379.9295959,0.03092766553,379.9295959,0.03072629869,379.9295959,0.03062670492,379.9295959,0.03192314506,379.9295959,0.03264700621
378.9990234,0.0322570987,378.9990234,0.03125634789,378.9990234,0.03179211169,378.9990234,0.031105211,378.9990234,0.032297723,378.9990234,0.03283670172
378.0682678,0.0329839997,378.0682678,0.03150808439,378.0682678,0.03182322159,378.0682678,0.03134929389,378.0682678,0.03269637749,378.0682678,0.03316135705
376.9822693,0.0339002125,376.9822693,0.03268674761,376.9822693,0.03251725808,376.9822693,0.03207406402,376.9822693,0.03332852572,376.9822693,0.03408690169
376.0512695,0.03417855501,376.0512695,0.0330927968,376.0512695,0.03291602805,376.0512695,0.03304198384,376.0512695,0.03425148502,376.0512695,0.03561961278
374.9649048,0.03478381038,374.9649048,0.03366199136,374.9649048,0.03333808482,374.9649048,0.03359645978,374.9649048,0.03470386192,374.9649048,0.03553015366
374.0336304,0.03518539667,374.0336304,0.03409160674,374.0336304,0.03471297398,374.0336304,0.03396058455,374.0336304,0.03557915241,374.0336304,0.03603561223
372.9469604,0.03708238155,372.9469604,0.03469326347,372.9469604,0.03491516411,372.9469604,0.03464915976,372.9469604,0.03637766838,372.9469604,0.03806583583
372.0153809,0.03644967824,372.0153809,0.0355313085,372.0153809,0.03568205237,372.0153809,0.03600043058,372.0153809,0.03735142946,372.0153809,0.03827261552
370.9283752,0.03690204024,370.9283752,0.03598304838,370.9283752,0.03639354557,370.9283752,0.03649787605,370.9283752,0.03779676929,370.9283752,0.03849488124
369.996521,0.03792434558,369.996521,0.03691717237,369.996521,0.03705920652,369.996521,0.03741377965,369.996521,0.03888805211,369.996521,0.04005324468
369.0645447,0.03831513599,369.0645447,0.03775446862,369.0645447,0.03740252182,369.0645447,0.03791239858,369.0645447,0.03901297972,369.0645447,0.04032999277
367.9770813,0.03897576779,367.9770813,0.03810242936,367.9770813,0.03802099451,367.9770813,0.03807493672,367.9770813,0.03947541863,367.9770813,0.04131568223
367.0448303,0.04004200548,367.0448303,0.03912493587,367.0448303,0.03890492767,367.0448303,0.03900890052,367.0448303,0.04011493549,367.0448303,0.04227557033
365.9570313,0.0405648537,365.9570313,0.03940205649,365.9570313,0.03950464725,365.9570313,0.03953779116,365.9570313,0.04143755138,365.9570313,0.0427890569
365.0245056,0.04177436978,365.0245056,0.03988369554,365.0245056,0.04003601521,365.0245056,0.0399421826,365.0245056,0.04204072431,365.0245056,0.04350984097
363.9363708,0.04117922112,363.9363708,0.04010712728,363.9363708,0.04044124112,363.9363708,0.04033752158,363.9363708,0.041923251,363.9363708,0.04343765229
363.0035706,0.04183641821,363.0035706,0.04055092484,363.0035706,0.0410457924,363.0035706,0.04064318538,363.0035706,0.0424718298,363.0035706,0.04393040761
362.0706482,0.04251470789,362.0706482,0.04143447429,362.0706482,0.04101506621,362.0706482,0.04116208851,362.0706482,0.04284647852,362.0706482,0.04449782148
360.9820557,0.04210086912,360.9820557,0.04138643667,360.9820557,0.04142265767,360.9820557,0.04160642624,360.9820557,0.0429135114,360.9820557,0.04523960128
360.0488586,0.04257446527,360.0488586,0.04238311946,360.0488586,0.04172677919,360.0488586,0.04186554998,360.0488586,0.0438263379,360.0488586,0.04544249922
358.9599609,0.0428651087,358.9599609,0.04158338159,358.9599609,0.0417089127,358.9599609,0.04214699194,358.9599609,0.04344938323,358.9599609,0.04566570371
358.0264893,0.04260410368,358.0264893,0.04177853093,358.0264893,0.04201457649,358.0264893,0.04185292125,358.0264893,0.04358289763,358.0264893,0.04583637416
356.9372864,0.04345753789,356.9372864,0.04260769859,356.9372864,0.04255833104,356.9372864,0.04219982028,356.9372864,0.04432884976,356.9372864,0.04599384591
356.00354,0.04317421466,356.00354,0.04254722595,356.00354,0.04263611138,356.00354,0.04263371229,356.00354,0.04454494268,356.00354,0.04663687572
355.0696716,0.04405352473,355.0696716,0.0427660048,355.0696716,0.04243483767,355.0696716,0.04292273894,355.0696716,0.0447287485,355.0696716,0.04641688615
353.980011,0.04406647384,353.980011,0.04307610169,353.980011,0.04295928776,353.980011,0.04305129126,353.980011,0.04495445639,353.980011,0.04667872563
353.0458679,0.04394232109,353.0458679,0.04287547991,353.0458679,0.04327404127,353.0458679,0.04312981665,353.0458679,0.04453800246,353.0458679,0.04678584635
351.9559021,0.04337878153,351.9559021,0.04275643826,351.9559021,0.04293982685,351.9559021,0.04317095503,351.9559021,0.04472989589,351.9559021,0.04653869569
351.0215149,0.04352443293,351.0215149,0.04287327826,351.0215149,0.04293468595,351.0215149,0.04319411516,351.0215149,0.0446808897,351.0215149,0.04674666747
349.9312134,0.04386602715,349.9312134,0.04280422628,349.9312134,0.04272987321,349.9312134,0.04339451343,349.9312134,0.04497515783,349.9312134,0.04718890786
348.9965515,0.04427111521,348.9965515,0.04304760322,348.9965515,0.04313993454,348.9965515,0.04318788275,348.9965515,0.04542053863,348.9965515,0.0472522527
348.0617676,0.04359981045,348.0617676,0.0428911373,348.0617676,0.04288836569,348.0617676,0.04320406541,348.0617676,0.04481208324,348.0617676,0.04690265283
346.9710388,0.04351003841,346.9710388,0.04261949286,346.9710388,0.04292845353,346.9710388,0.04308541864,346.9710388,0.04507654533,346.9710388,0.04743608087
346.0360107,0.04329960793,346.0360107,0.04277285933,346.0360107,0.04294297099,346.0360107,0.04297080636,346.0360107,0.04482221603,346.0360107,0.04759058356
344.9449768,0.04349993914,344.9449768,0.04300956056,344.9449768,0.04329080135,344.9449768,0.04318862781,344.9449768,0.04488323629,344.9449768,0.04770968854
344.0096741,0.04359840974,344.0096741,0.04276820645,344.0096741,0.04303053766,344.0096741,0.04345905408,344.0096741,0.04498939589,344.0096741,0.04781119525
343.0742493,0.04352466017,343.0742493,0.04294948652,343.0742493,0.04306346551,343.0742493,0.04342741147,343.0742493,0.04516824707,343.0742493,0.04790683091
341.9827881,0.04336885363,341.9827881,0.04257620499,341.9827881,0.0428958796,341.9827881,0.04316812754,341.9827881,0.04481191188,341.9827881,0.04793501645
341.0470886,0.04316626862,341.0470886,0.04265690222,341.0470886,0.04266889766,341.0470886,0.04311166331,341.0470886,0.04497644678,341.0470886,0.04814981669
339.9553223,0.04322082177,339.9553223,0.04227242991,339.9553223,0.04299478233,339.9553223,0.04280479997,339.9553223,0.04475764185,339.9553223,0.04839241505
339.0194092,0.04316615313,339.0194092,0.04251296818,339.0194092,0.0425004065,339.0194092,0.04292791337,339.0194092,0.04543531314,339.0194092,0.04839267582
337.9273376,0.04260707274,337.9273376,0.04245119169,337.9273376,0.04257886112,337.9273376,0.04272067547,337.9273376,0.04494489729,337.9273376,0.04825241119
336.9911499,0.04286136478,336.9911499,0.04234274104,336.9911499,0.04257806018,336.9911499,0.04270973802,336.9911499,0.04519042373,336.9911499,0.04875665531
336.0548401,0.04317075759,336.0548401,0.04206336662,336.0548401,0.04226846248,336.0548401,0.04235532507,336.0548401,0.04490241036,336.0548401,0.04852294177
334.9623413,0.04268268868,334.9623413,0.04166668281,334.9623413,0.04192439094,334.9623413,0.04251944646,334.9623413,0.04518758133,334.9623413,0.04915439337
334.0257874,0.04245941341,334.0257874,0.04166261107,334.0257874,0.04194240645,334.0257874,0.0424195379,334.0257874,0.04501509294,334.0257874,0.04965048656
332.9329834,0.04259976372,332.9329834,0.04169306904,332.9329834,0.04178223759,332.9329834,0.04245784506,332.9329834,0.04534533247,332.9329834,0.04975784943
331.9961853,0.04232450575,331.9961853,0.04156249762,331.9961853,0.04170201719,331.9961853,0.04202523828,331.9961853,0.04511996731,331.9961853,0.04993623868
331.0592651,0.04196715727,331.0592651,0.04149542004,331.0592651,0.04198446497,331.0592651,0.04247645661,331.0592651,0.04522604495,331.0592651,0.05077674985
329.9660339,0.0419231914,329.9660339,0.04142060503,329.9660339,0.041710224,329.9660339,0.04224104434,329.9660339,0.04594803602,329.9660339,0.05110266432
329.0288696,0.04251091182,329.0288696,0.04105674475,329.0288696,0.04177331552,329.0288696,0.04214325547,329.0288696,0.04570449516,329.0288696,0.05150628835
327.9353638,0.04195338488,327.9353638,0.04090543091,327.9353638,0.04159417748,327.9353638,0.04233677685,327.9353638,0.04610065371,327.9353638,0.05175980926
326.9979248,0.04139722884,326.9979248,0.04116146266,326.9979248,0.04159380496,326.9979248,0.04231939837,326.9979248,0.04581520334,326.9979248,0.05254902318
326.0603943,0.04182276502,326.0603943,0.04102058336,326.0603943,0.04154529423,326.0603943,0.04269905388,326.0603943,0.0462520048,326.0603943,0.053111054
324.9664917,0.04146016389,324.9664917,0.04115207121,324.9664917,0.04169466347,324.9664917,0.04259428009,324.9664917,0.04670795053,324.9664917,0.05427813157
324.028717,0.04157295451,324.028717,0.04141206294,324.028717,0.04187666625,324.028717,0.04285476357,324.028717,0.04759456962,324.028717,0.05490605906
322.9344788,0.04232755676,322.9344788,0.04152883217,322.9344788,0.04172119498,322.9344788,0.04321447387,322.9344788,0.04763824493,322.9344788,0.05568338558
321.99646,0.04188618809,321.99646,0.0416014418,321.99646,0.04223622382,321.99646,0.04340392351,321.99646,0.04814223945,321.99646,0.05639675632
321.0583496,0.04199432954,321.0583496,0.04162477329,321.0583496,0.04239402339,321.0583496,0.04365613684,321.0583496,0.04867131636,321.0583496,0.05735644698
319.9637146,0.04225359857,319.9637146,0.04153842852,319.9637146,0.04273986816,319.9637146,0.04386596754,319.9637146,0.04931037873,319.9637146,0.05851053819
319.0253601,0.04268157482,319.0253601,0.04179577529,319.0253601,0.04275317863,319.0253601,0.04456917942,319.0253601,0.04977340996,319.0253601,0.05970334634
317.9304504,0.04258131608,317.9304504,0.04208578169,317.9304504,0.04315406084,317.9304504,0.04505965859,317.9304504,0.05058446527,317.9304504,0.06137150899
316.9918518,0.04274958,316.9918518,0.04239045456,316.9918518,0.04306949675,316.9918518,0.04543358833,316.9918518,0.05112436041,316.9918518,0.06236190349
316.0531311,0.04318047687,316.0531311,0.04280491173,316.0531311,0.04397036508,316.0531311,0.04592334852,316.0531311,0.05240647495,316.0531311,0.0636177659
314.9577942,0.043880146,314.9577942,0.04370502755,314.9577942,0.04425073788,314.9577942,0.04645713046,314.9577942,0.05315417424,314.9577942,0.06529778242
314.0188599,0.04404086247,314.0188599,0.04364508763,314.0188599,0.04454296455,314.0188599,0.04676517472,314.0188599,0.05403137207,314.0188599,0.06685577333
312.9232788,0.04400654137,312.9232788,0.04365519434,312.9232788,0.04498291016,312.9232788,0.04757371545,312.9232788,0.05537412688,312.9232788,0.0690324381
311.9840698,0.04447120801,311.9840698,0.04419235513,311.9840698,0.0454944931,311.9840698,0.04830763862,311.9840698,0.05618567392,311.9840698,0.07077845186
311.0447693,0.04462348297,311.0447693,0.04423660785,311.0447693,0.04615716264,311.0447693,0.04911314696,311.0447693,0.05798123777,311.0447693,0.07371400297
309.9487915,0.04485473409,309.9487915,0.04494464025,309.9487915,0.04665938392,309.9487915,0.05002595112,309.9487915,0.05978330597,309.9487915,0.07694046944
309.0092468,0.0454454571,309.0092468,0.04537470266,309.0092468,0.04740790278,309.0092468,0.05140426382,309.0092468,0.06185573712,309.0092468,0.08129892498
308.0696106,0.04617633671,308.0696106,0.04554060474,308.0696106,0.04819652438,308.0696106,0.0524998568,308.0696106,0.06414855272,308.0696106,0.08481585234
306.9732361,0.04637019336,306.9732361,0.04638525844,306.9732361,0.04908253625,306.9732361,0.05397605896,306.9732361,0.06666211784,306.9732361,0.09128849208
306.0333557,0.04663903639,306.0333557,0.04718400165,306.0333557,0.05039883405,306.0333557,0.05604878813,306.0333557,0.07094739377,306.0333557,0.09814859927
304.9367065,0.04666759819,304.9367065,0.04757264629,304.9367065,0.0513792634,304.9367065,0.05893681943,304.9367065,0.07611934096,304.9367065,0.1074644774
303.9966125,0.0473000221,303.9966125,0.04844644666,303.9966125,0.05294594914,303.9966125,0.06172215939,303.9966125,0.08213685453,303.9966125,0.1201941371
303.056427,0.0477001518,303.056427,0.04882938415,303.056427,0.05420548469,303.056427,0.06446934491,303.056427,0.08784601837,303.056427,0.1307065338
301.9593811,0.04800029099,301.9593811,0.04989189655,301.9593811,0.05646355078,301.9593811,0.06750923395,301.9593811,0.09569125623,301.9593811,0.1435137689
301.0189514,0.04921767861,301.0189514,0.05097980425,301.0189514,0.05867771059,301.0189514,0.07258052379,301.0189514,0.1052847803,301.0189514,0.1632768363
299.9216309,0.049317047,299.9216309,0.05206250772,299.9216309,0.0617454946,299.9216309,0.07874339074,299.9216309,0.1152666584,299.9216309,0.1851018518
298.9809875,0.05035086721,298.9809875,0.05398763716,298.9809875,0.06454712898,298.9809875,0.08433672041,298.9809875,0.1279295534,298.9809875,0.2098363638
298.0402222,0.05134578422,298.0402222,0.0550827533,298.0402222,0.06653945148,298.0402222,0.08905207366,298.0402222,0.13663809,298.0402222,0.2270672023
296.9425354,0.05203247815,296.9425354,0.05565422401,296.9425354,0.0688540116,296.9425354,0.09243926406,296.9425354,0.145931676,296.9425354,0.2461408377
296.0015564,0.0527737774,296.0015564,0.05828407034,296.0015564,0.07187176496,296.0015564,0.09960173815,296.0015564,0.1588203907,296.0015564,0.2714508474
295.0604553,0.05311602727,295.0604553,0.05846308917,295.0604553,0.0742919594,295.0604553,0.1047141403,295.0604553,0.1720594913,295.0604553,0.2969405353
293.9624023,0.0541006811,293.9624023,0.06037260219,293.9624023,0.07754030824,293.9624023,0.1112175733,293.9624023,0.1812265962,293.9624023,0.3160349131
293.0210876,0.05428593606,293.0210876,0.06111773849,293.0210876,0.07980268449,293.0210876,0.11387638,293.0210876,0.1883735806,293.0210876,0.3302187026
291.92276,0.05451200157,291.92276,0.06229963154,291.92276,0.08091296256,291.92276,0.1177485138,291.92276,0.1962674856,291.92276,0.3444914818
290.9812317,0.05592784658,290.9812317,0.06279488653,290.9812317,0.08312719315,290.9812317,0.1207718253,290.9812317,0.2026720345,290.9812317,0.359408766
290.0396118,0.05572326109,290.0396118,0.06378697604,290.0396118,0.08476824313,290.0396118,0.1246152148,290.0396118,0.2099060714,290.0396118,0.3720363081
288.940918,0.05600211024,288.940918,0.06446874887,288.940918,0.08617538959,288.940918,0.1277169138,288.940918,0.2166877836,288.940918,0.384991914
287.999054,0.05659434572,287.999054,0.06487563998,287.999054,0.08720111847,287.999054,0.1289692968,287.999054,0.2208047509,287.999054,0.3953994811
287.0571289,0.05631573498,287.0571289,0.06515096128,287.0571289,0.08798642457,287.0571289,0.1316668838,287.0571289,0.2251384109,287.0571289,0.4015751779
285.9580688,0.05722701922,285.9580688,0.06637441367,285.9580688,0.08910492063,285.9580688,0.1336003542,285.9580688,0.2301556617,285.9580688,0.4128952026
285.0158997,0.05691925809,285.0158997,0.0664107278,285.0158997,0.09060200304,285.0158997,0.1354444027,285.0158997,0.2330363691,285.0158997,0.420101732
284.0736389,0.05694038793,284.0736389,0.06660710275,284.0736389,0.09089648724,284.0736389,0.136981383,284.0736389,0.2359523624,284.0736389,0.4250155091
282.9742126,0.05710279569,282.9742126,0.06640545279,282.9742126,0.09059517831,282.9742126,0.1365302801,282.9742126,0.2369554788,282.9742126,0.4276485741
282.0317383,0.05697232112,282.0317383,0.06693542749,282.0317383,0.09103549272,282.0317383,0.1368308812,282.0317383,0.2365578264,282.0317383,0.4285152256
280.9320679,0.05718848109,280.9320679,0.06700652838,280.9320679,0.09115163982,280.9320679,0.1370489746,280.9320679,0.2367457598,280.9320679,0.4290734828
279.9893799,0.05711587518,279.9893799,0.06707781553,279.9893799,0.09089687467,279.9893799,0.1368563175,279.9893799,0.2363607883,279.9893799,0.4277421236
279.0466003,0.05760814622,279.0466003,0.06669468433,279.0466003,0.09070142359,279.0466003,0.1362778544,279.0466003,0.2356678396,279.0466003,0.427180171
277.9465637,0.05758766457,277.9465637,0.06656724215,277.9465637,0.09059534222,277.9465637,0.1359327435,277.9465637,0.2347371876,277.9465637,0.4254965782
277.0035706,0.057466086,277.0035706,0.06658691913,277.0035706,0.09055965394,277.0035706,0.1362024695,277.0035706,0.2354652435,277.0035706,0.4255893528
276.0604858,0.0576463677,276.0604858,0.06673356146,276.0604858,0.09135141969,276.0604858,0.1370644271,276.0604858,0.2374019176,276.0604858,0.4294972122
274.960083,0.05765691772,274.960083,0.06760396063,274.960083,0.09264677763,274.960083,0.1393723637,274.960083,0.2423917502,274.960083,0.439570725
274.0168152,0.05842337757,274.0168152,0.06762552261,274.0168152,0.09351590276,274.0168152,0.141397804,274.0168152,0.2470472604,274.0168152,0.4492985606
273.0734253,0.05789971352,273.0734253,0.06852614135,273.0734253,0.0939912945,273.0734253,0.1430560201,273.0734253,0.2502676547,273.0734253,0.4541079402
271.9726868,0.05846599117,271.9726868,0.0677004829,271.9726868,0.09422997385,271.9726868,0.1451762766,271.9726868,0.2541619539,271.9726868,0.4608589113
271.0290833,0.05889537558,271.0290833,0.06977784634,271.0290833,0.09713446349,271.0290833,0.1490359902,271.0290833,0.2621739805,271.0290833,0.4777537882
269.9281006,0.05993403122,269.9281006,0.07160274684,269.9281006,0.1017604843,269.9281006,0.15819484,269.9281006,0.2778704166,269.9281006,0.5089758635
268.984314,0.06137356907,268.984314,0.07370129973,268.984314,0.1052317768,268.984314,0.1652121395,268.984314,0.2944334447,268.984314,0.5408527255
268.0404053,0.06184281409,268.0404053,0.07599394023,268.0404053,0.1117469743,268.0404053,0.1757861972,268.0404053,0.3168421984,268.0404053,0.5788766742
266.9390869,0.06391087919,266.9390869,0.07979276031,266.9390869,0.1192382872,266.9390869,0.1932086647,266.9390869,0.3503870368,266.9390869,0.6498483419
265.9949951,0.06656099856,265.9949951,0.08606889099,265.9949951,0.13425304,265.9949951,0.2197878063,265.9949951,0.4042208791,265.9949951,0.7480838299
265.0508118,0.07111125439,265.0508118,0.0942062363,265.0508118,0.150164187,265.0508118,0.2561736405,265.0508118,0.4772677422,265.0508118,0.8890329003
263.9491577,0.07445056736,263.9491577,0.1020110399,263.9491577,0.1688871682,263.9491577,0.2998152077,263.9491577,0.5543214083,263.9491577,1.035916686
263.0047913,0.07838530838,263.0047913,0.1105643958,263.0047913,0.1871115863,263.0047913,0.3398686349,263.0047913,0.6301255226,263.0047913,1.193561196
262.0603027,0.08385682851,262.0603027,0.124585554,262.0603027,0.2159471512,262.0603027,0.399835974,262.0603027,0.7637956738,262.0603027,1.419636726
260.958313,0.0927632004,260.958313,0.1407379508,260.958313,0.2526465356,260.958313,0.467643559,260.958313,0.890235126,260.958313,1.697026014
260.0136414,0.1002443284,260.0136414,0.1558963805,260.0136414,0.2833691835,260.0136414,0.5358960629,260.0136414,1.022454262,260.0136414,1.935839891
259.0688782,0.1047814861,259.0688782,0.1687458158,259.0688782,0.3100065291,259.0688782,0.5822111964,259.0688782,1.123161793,259.0688782,2.152983665
257.9665527,0.1144188344,257.9665527,0.1883129925,257.9665527,0.3510572612,257.9665527,0.6720582843,257.9665527,1.298109651,257.9665527,2.451333046
257.0216064,0.1225334927,257.0216064,0.2046669126,257.0216064,0.3902097344,257.0216064,0.7336581945,257.0216064,1.441312432,257.0216064,2.708507538
256.0765686,0.1294830143,256.0765686,0.2197609693,256.0765686,0.4169566929,256.0765686,0.8012710214,256.0765686,1.576024652,256.0765686,2.929566145
254.9738922,0.1368245929,254.9738922,0.234147042,254.9738922,0.4486964047,254.9738922,0.869618237,254.9738922,1.698871851,254.9738922,2.987734795
254.028656,0.1411408186,254.028656,0.2421421856,254.028656,0.4663973153,254.028656,0.9091851711,254.028656,1.776289344,254.028656,3.344734907
252.9257813,0.1439373195,252.9257813,0.2510032654,252.9257813,0.4850190878,252.9257813,0.9458625913,252.9257813,1.8661654,252.9257813,3.356263161
251.9803619,0.1467588097,251.9803619,0.2573507428,251.9803619,0.4988386631,251.9803619,0.9705114961,251.9803619,1.925572753,251.9803619,3.501707554
251.0348358,0.1501550823,251.0348358,0.2626343369,251.0348358,0.5113038421,251.0348358,0.9980613589,251.0348358,1.981034756,251.0348358,3.463320017
249.9320374,0.1517155468,249.9320374,0.2672609687,249.9320374,0.5213332772,249.9320374,1.01629293,249.9320374,2.020897388,249.9320374,3.45186758
248.9919891,0.1517654359,248.9919891,0.2683429718,248.9919891,0.5238587856,248.9919891,1.023402572,248.9919891,2.039273024,248.9919891,3.434555531
248.0518341,0.1513363868,248.0518341,0.2675292492,248.0518341,0.5234620571,248.0518341,1.024353623,248.0518341,2.043467283,248.0518341,3.634895325
246.954895,0.1496972144,246.954895,0.2662278712,246.954895,0.5211402774,246.954895,1.019367695,246.954895,2.031191826,246.954895,3.620423317
246.0145721,0.1472976208,246.0145721,0.261346072,246.0145721,0.5117423534,246.0145721,1.002212763,246.0145721,2.004388094,246.0145721,3.83790493
245.0741577,0.1446059197,245.0741577,0.2564535737,245.0741577,0.5003700256,245.0741577,0.9780320525,245.0741577,1.943850636,245.0741577,3.427590609
243.9768982,0.1405968368,243.9768982,0.2475878894,243.9768982,0.4861040413,243.9768982,0.9511930346,243.9768982,1.897273183,243.9768982,3.404976368
243.0363007,0.1364486516,243.0363007,0.2404793054,243.0363007,0.468642354,243.0363007,0.9184876084,243.0363007,1.839045763,243.0363007,3.395514488
241.9388275,0.130862385,241.9388275,0.2318385988,241.9388275,0.4516560137,241.9388275,0.8766034842,241.9388275,1.764789104,241.9388275,3.08796525
240.9980621,0.1259445846,240.9980621,0.2203624398,240.9980621,0.4296137393,240.9980621,0.8329202533,240.9980621,1.673828602,240.9980621,3.022033453
240.0571899,0.1205650494,240.0571899,0.2103947848,240.0571899,0.4094760716,240.0571899,0.7976347804,240.0571899,1.596301317,240.0571899,2.935447931
238.9594269,0.1149104312,238.9594269,0.1981323361,238.9594269,0.3861704767,238.9594269,0.7526662946,238.9594269,1.488238931,238.9594269,2.812448502
238.0183868,0.1099486649,238.0183868,0.1900220662,238.0183868,0.3657781482,238.0183868,0.709262073,238.0183868,1.415502071,238.0183868,2.682999849
237.0772552,0.1050854176,237.0772552,0.1790539622,237.0772552,0.3447500169,237.0772552,0.6682247519,237.0772552,1.338544607,237.0772552,2.600220442
235.979187,0.1004459187,235.979187,0.1702201813,235.979187,0.3266450465,235.979187,0.6326419115,235.979187,1.266394854,235.979187,2.479964256
235.0378876,0.0976883173,235.0378876,0.1652947366,235.0378876,0.31684196,235.0378876,0.6116179228,235.0378876,1.224287987,235.0378876,2.416118145
233.9396057,0.09731728584,233.9396057,0.164840728,233.9396057,0.3146551549,233.9396057,0.608966589,233.9396057,1.216171741,233.9396057,2.385344505
232.9981384,0.1009351015,232.9981384,0.1728599221,232.9981384,0.3298642039,232.9981384,0.63607198,232.9981384,1.267841816,232.9981384,2.479351282
232.0565796,0.1072760746,232.0565796,0.1860375553,232.0565796,0.3541551828,232.0565796,0.688237071,232.0565796,1.375016093,232.0565796,2.656406641
230.9579926,0.1201477125,230.9579926,0.2060397863,230.9579926,0.4033875465,230.9579926,0.7846292853,230.9579926,1.551133513,230.9579926,2.939416885
230.0162811,0.1253443658,230.0162811,0.220122382,230.0162811,0.4251019061,230.0162811,0.8283672333,230.0162811,1.671147704,230.0162811,3.066460371
229.0744629,0.1323496401,229.0744629,0.2290379405,229.0744629,0.4454008043,229.0744629,0.8654409051,229.0744629,1.7250278,229.0744629,3.27408576
227.9756012,0.1362251341,227.9756012,0.2352461815,227.9756012,0.4600046277,227.9756012,0.8961992264,227.9756012,1.780087352,227.9756012,3.388465643
227.0336304,0.1420626491,227.0336304,0.2456510067,227.0336304,0.474421531,227.0336304,0.9221640825,227.0336304,1.84262228,227.0336304,3.447876453
225.9345551,0.1508871019,225.9345551,0.2589256763,225.9345551,0.4993164837,225.9345551,0.9766002893,225.9345551,1.930821061,225.9345551,3.430918455
224.9924164,0.157287091,224.9924164,0.2674053311,224.9924164,0.5179412961,224.9924164,1.004768133,224.9924164,2.002561331,224.9924164,3.629410505
224.0501862,0.1601037532,224.0501862,0.2723143697,224.0501862,0.5220142603,224.0501862,1.011021614,224.0501862,2.01155448,224.0501862,3.392431021
222.9508362,0.1638103276,222.9508362,0.2745579779,222.9508362,0.5210328698,222.9508362,1.00156033,222.9508362,1.996159911,222.9508362,3.443309784
222.0084534,0.1661639512,222.0084534,0.27416417,222.0084534,0.5152840018,222.0084534,0.9841166735,222.0084534,1.935248613,222.0084534,3.449605465
221.065979,0.1699455231,221.065979,0.2731336653,221.065979,0.5059785247,221.065979,0.9606810808,221.065979,1.890377998,221.065979,3.48793602
219.9663391,0.1722804904,219.9663391,0.2717882693,219.9663391,0.4969944358,219.9663391,0.9322108626,219.9663391,1.822458863,219.9663391,3.157443285
219.0237122,0.1741244346,219.0237122,0.2689502835,219.0237122,0.4859182835,219.0237122,0.897644341,219.0237122,1.769556642,219.0237122,3.196264505
217.9238892,0.1764488518,217.9238892,0.2668155134,217.9238892,0.4700091779,217.9238892,0.8627074361,217.9238892,1.663577199,217.9238892,3.154513121
216.9810944,0.1813395023,216.9810944,0.266305238,216.9810944,0.4609519839,216.9810944,0.8349635601,216.9810944,1.61351347,216.9810944,2.985998869
216.0382233,0.1868014485,216.0382233,0.270026058,216.0382233,0.4593384564,216.0382233,0.8216041327,216.0382233,1.582129836,216.0382233,2.974237204
214.9381256,0.1971372217,214.9381256,0.2819318175,214.9381256,0.4716744125,214.9381256,0.8344474435,214.9381256,1.601629376,214.9381256,2.959162712
213.9951019,0.2072204053,213.9951019,0.2935864031,213.9951019,0.4922088981,213.9951019,0.8699408174,213.9951019,1.649421096,213.9951019,3.207015753
213.052002,0.229765892,213.052002,0.323176235,213.052002,0.5424019694,213.052002,0.9736712575,213.052002,1.814915538,213.052002,3.189451218
211.9516296,0.2492069751,211.9516296,0.3577493727,211.9516296,0.6158379912,211.9516296,1.073943734,211.9516296,2.026733875,211.9516296,3.577485085
211.0083618,0.2737335861,211.0083618,0.4058046639,211.0083618,0.6725886464,211.0083618,1.186119199,211.0083618,2.327951431,211.0083618,3.825797558
210.065033,0.2941436172,210.065033,0.4213096201,210.065033,0.715374589,210.065033,1.283969164,210.065033,2.398975611,210.065033,3.511461735
208.964386,0.31097278,208.964386,0.4522737563,208.964386,0.7744495869,208.964386,1.36403203,208.964386,2.56899786,208.964386,3.483175278
208.0209045,0.3342508078,208.0209045,0.489259094,208.0209045,0.8261763453,208.0209045,1.479101896,208.0209045,2.72815752,208.0209045,3.520522594
207.0773468,0.3574829698,207.0773468,0.5253402591,207.0773468,0.9068174958,207.0773468,1.60496664,207.0773468,2.870685101,207.0773468,3.506541729
205.9764252,0.3851367831,205.9764252,0.5731729865,205.9764252,0.9870815873,205.9764252,1.777689576,205.9764252,3.07456708,205.9764252,3.158576012
205.0327148,0.4054581821,205.0327148,0.6074188352,205.0327148,1.050230861,205.0327148,1.90424037,205.0327148,3.273590803,205.0327148,3.55666852
203.9316254,0.4378705323,203.9316254,0.6653245687,203.9316254,1.16337347,203.9316254,2.10444212,203.9316254,3.489308357,203.9316254,3.702703953
202.9877625,0.4866303504,202.9877625,0.741928041,202.9877625,1.309827924,202.9877625,2.336915016,202.9877625,3.505279779,202.9877625,3.567288637
202.0438385,0.5314991474,202.0438385,0.8365160823,202.0438385,1.477972269,202.0438385,2.63328743,202.0438385,3.198382139,202.0438385,3.601577044
200.9424896,0.6310463548,200.9424896,0.9764006734,200.9424896,1.770592451,200.9424896,2.966754436,200.9424896,3.376236677,200.9424896,3.65145731
199.9983826,0.6871603727,199.9983826,1.121223211,199.9983826,1.966046333,199.9983826,3.224083185,199.9983826,3.532736778,199.9983826,3.574723005