10uM,,20uM,,40uM,,80uM,,160uM,,320uM,
Wavelength (nm),Abs,Wavelength (nm),Abs,Wavelength (nm),Abs,Wavelength (nm),Abs,Wavelength (nm),Abs,Wavelength (nm),Abs
800.0369873,0.01047578827,800.0369873,0.009062296711,800.0369873,0.01122915372,800.0369873,0.009351689368,800.0369873,0.002842527349,800.0369873,0.009161823429
799.0648804,0.009676291607,799.0648804,0.01046297979,799.0648804,0.0119644301,799.0648804,0.01006143074,799.0648804,0.003307118779,799.0648804,0.009920220822
797.9534302,0.01175551955,797.9534302,0.01052201167,797.9534302,0.01091326308,797.9534302,0.009418003261,797.9534302,0.002909965347,797.9534302,0.008598692715
796.9805298,0.01137881447,796.9805298,0.008970165625,796.9805298,0.01065076236,796.9805298,0.008558138274,796.9805298,0.003053475404,796.9805298,0.008010291494
796.0072632,0.01138301287,796.0072632,0.009987231344,796.0072632,0.01157441083,796.0072632,0.008675771765,796.0072632,0.00217319699,796.0072632,0.007832318544
795.0336304,0.01019788906,795.0336304,0.01087408513,795.0336304,0.01035501529,795.0336304,0.01010609977,795.0336304,0.003580720164,795.0336304,0.009285597131
794.0596313,0.009945619851,794.0596313,0.01078387722,794.0596313,0.01060789451,794.0596313,0.008850471117,794.0596313,0.003726070747,794.0596313,0.009004308842
792.9459839,0.01049997285,792.9459839,0.009443398565,792.9459839,0.01022078656,792.9459839,0.00974795036,792.9459839,0.002635067329,792.9459839,0.008487019688
791.9711304,0.0101998765,791.9711304,0.009631588124,791.9711304,0.009882218204,791.9711304,0.008824422956,791.9711304,0.002529135207,791.9711304,0.008663623594
790.9959717,0.01007920783,790.9959717,0.008180634119,790.9959717,0.009504223242,790.9959717,0.01114498079,790.9959717,0.002032604069,790.9959717,0.008654988371
790.0203857,0.009371579625,790.0203857,0.01068182848,790.0203857,0.01014014706,790.0203857,0.008130677044,790.0203857,0.001786617679,790.0203857,0.008238538168
789.0444336,0.01026059501,789.0444336,0.00916645024,789.0444336,0.009380810894,789.0444336,0.008966783062,789.0444336,0.001808452187,789.0444336,0.008663650602
788.0681152,0.009210392833,788.0681152,0.009139510803,788.0681152,0.009053045884,788.0681152,0.008172298782,788.0681152,0.0009941486642,788.0681152,0.006724759005
786.9518433,0.008830076084,786.9518433,0.007934569381,786.9518433,0.009470622055,786.9518433,0.006558612455,786.9518433,0.001827896107,786.9518433,0.007772202138
785.9747314,0.009676238522,785.9747314,0.00915471185,785.9747314,0.008225480095,785.9747314,0.008134053089,785.9747314,0.0007422410417,785.9747314,0.007006757427
784.9972534,0.008740793914,784.9972534,0.008459409699,784.9972534,0.009170389734,784.9972534,0.007621829398,784.9972534,0.002486123936,784.9972534,0.00677786814
784.0194092,0.008825057186,784.0194092,0.008986497298,784.0194092,0.00847817678,784.0194092,0.007458235603,784.0194092,0.0006239892682,784.0194092,0.0074292426
783.0411987,0.008668562397,783.0411987,0.007694439963,783.0411987,0.009897630662,783.0411987,0.007600807119,783.0411987,0.0009192510042,783.0411987,0.007470375858
782.062561,0.009088411927,782.062561,0.00779346982,782.062561,0.008806036785,782.062561,0.00828998629,782.062561,0.0005454231868,782.062561,0.008303336799
780.9437256,0.009009832516,780.9437256,0.006938574836,780.9437256,0.009103452787,780.9437256,0.007875835523,780.9437256,0.0003599122865,780.9437256,0.007362362929
779.9643555,0.009116353467,779.9643555,0.007140838541,779.9643555,0.008790610358,779.9643555,0.008120021783,779.9643555,-0.0008051868645,779.9643555,0.006584551185
778.9845581,0.008720535785,778.9845581,0.007856145501,778.9845581,0.008723916486,778.9845581,0.007459762972,778.9845581,0.0003305601422,778.9845581,0.00588012347
778.0044556,0.008703210391,778.0044556,0.008212737739,778.0044556,0.009600014426,778.0044556,0.007693333551,778.0044556,0.0006771350745,778.0044556,0.008790768683
777.0239868,0.007878630422,777.0239868,0.007377423346,777.0239868,0.007918171585,777.0239868,0.006340150256,777.0239868,0.001117587904,777.0239868,0.005623898469
776.0430908,0.008801757358,776.0430908,0.006925897207,776.0430908,0.008739208803,776.0430908,0.007047403604,776.0430908,0.0001669448102,776.0430908,0.006144507788
775.0618896,0.007927847095,775.0618896,0.007048166357,775.0618896,0.008211946115,775.0618896,0.006104103755,775.0618896,0.0003663891985,775.0618896,0.006289668847
773.9400635,0.008041221648,773.9400635,0.008203425445,773.9400635,0.009367876686,773.9400635,0.006526683457,773.9400635,-0.0005616210983,773.9400635,0.00700154854
772.9580078,0.008663755842,772.9580078,0.006806791294,772.9580078,0.009266371839,772.9580078,0.007068530656,772.9580078,0.0004168864689,772.9580078,0.005715165287
771.975647,0.008524927311,771.975647,0.005911375396,771.975647,0.007630681153,771.975647,0.006377844606,771.975647,0.0009472679812,771.975647,0.005844466388
770.9929199,0.008580448106,770.9929199,0.007317896467,770.9929199,0.008706432767,770.9929199,0.005928405561,770.9929199,0.0007364326739,770.9929199,0.006262565497
770.0098267,0.007951626554,770.0098267,0.006442786194,770.0098267,0.008982030675,770.0098267,0.007035011891,770.0098267,0.000619141676,770.0098267,0.006807711907
769.0263672,0.008049686439,769.0263672,0.00671574194,769.0263672,0.007582525257,769.0263672,0.006296024658,769.0263672,-2.842186404E-05,769.0263672,0.006290771533
768.0425415,0.007390825078,768.0425415,0.00671574194,768.0425415,0.007489127107,768.0425415,0.006291507278,768.0425415,-0.0003842883452,768.0425415,0.005893531721
767.0583496,0.007266063709,767.0583496,0.005950606894,767.0583496,0.007721290458,767.0583496,0.006143772509,767.0583496,0.000513078121,767.0583496,0.005834339187
765.9331055,0.00880215317,765.9331055,0.006727650762,765.9331055,0.006938732695,765.9331055,0.005344866309,765.9331055,-0.000139865253,765.9331055,0.006055302918
764.9481201,0.007416945416,764.9481201,0.007256403565,764.9481201,0.00695030624,764.9481201,0.004765826743,764.9481201,-5.777363913E-05,764.9481201,0.005838694517
763.9628296,0.007344460115,763.9628296,0.0065346458,763.9628296,0.00714760134,763.9628296,0.005189044401,763.9628296,-1.496183177E-05,763.9628296,0.005649519153
762.9771118,0.007558581419,762.9771118,0.005798371043,762.9771118,0.006627944298,762.9771118,0.006109774113,762.9771118,-1.496183177E-05,762.9771118,0.005263188388
761.9910889,0.007113392465,761.9910889,0.00619040383,761.9910889,0.007039247546,761.9910889,0.006005773321,761.9910889,-0.001282927347,761.9910889,0.004824795295
761.0046387,0.007144943811,761.0046387,0.006309734657,761.0046387,0.00692760665,761.0046387,0.005114624742,761.0046387,-0.001547601656,761.0046387,0.005283049773
760.0178833,0.007283831947,760.0178833,0.006655963603,760.0178833,0.00646882318,760.0178833,0.005029533058,760.0178833,-0.0009661795339,760.0178833,0.004170673899
759.0307617,0.006955777295,759.0307617,0.005663680844,759.0307617,0.00665998552,759.0307617,0.005090423394,759.0307617,-0.001808866742,759.0307617,0.004432345275
758.0432739,0.006301093381,758.0432739,0.006004093681,758.0432739,0.006673575845,758.0432739,0.00565159088,758.0432739,-0.001732968609,758.0432739,0.003729256103
757.055481,0.006080897059,757.055481,0.004958387464,757.055481,0.00608050311,757.055481,0.00437405752,757.055481,-0.002527900273,757.055481,0.003422685666
756.0672607,0.006534409244,756.0672607,0.005311061163,756.0672607,0.006283365656,756.0672607,0.004590460099,756.0672607,-0.001475733938,756.0672607,0.003352063475
754.937439,0.005891878624,754.937439,0.004874923732,754.937439,0.00570060825,754.937439,0.003769857809,754.937439,-0.002715061652,754.937439,0.00477019744
753.9484863,0.005439115223,753.9484863,0.004892698955,753.9484863,0.006107017398,753.9484863,0.004397251178,753.9484863,-0.002596815117,753.9484863,0.003794873366
752.9591675,0.005793439224,752.9591675,0.004960482009,752.9591675,0.005660061724,752.9591675,0.0043370598,752.9591675,-0.002620127518,752.9591675,0.003811403411
751.9694824,0.004524487071,751.9694824,0.004809221253,751.9694824,0.004809535574,751.9694824,0.003366907127,751.9694824,-0.002722881967,751.9694824,0.003976423759
750.9794312,0.005187262781,750.9794312,0.004324379377,750.9794312,0.005365937017,750.9794312,0.004043855239,750.9794312,-0.002626920119,750.9794312,0.002473497298
749.9890747,0.004892149009,749.9890747,0.003817723133,749.9890747,0.005351051223,749.9890747,0.003530740971,749.9890747,-0.003269999288,749.9890747,0.002885756316
748.9983521,0.004760592245,748.9983521,0.00406980142,748.9983521,0.004088981077,748.9983521,0.003456161357,748.9983521,-0.003119007917,748.9983521,0.002708438085
748.0072632,0.005092178006,748.0072632,0.002923412481,748.0072632,0.004273399245,748.0072632,0.002870720811,748.0072632,-0.003826281056,748.0072632,0.002875593491
747.0158081,0.00420865044,747.0158081,0.003308214247,747.0158081,0.004235730506,747.0158081,0.003517222824,747.0158081,-0.003496747231,747.0158081,0.002244121861
746.0239868,0.003691216698,746.0239868,0.0021657045,746.0239868,0.00328593934,746.0239868,0.00180065399,746.0239868,-0.005247304682,746.0239868,0.001684452523
745.0318604,0.003538204823,745.0318604,0.00239058747,745.0318604,0.003772808472,745.0318604,0.002090578433,745.0318604,-0.003966510296,745.0318604,0.001635860419
744.0393677,0.003751710523,744.0393677,0.00254186755,744.0393677,0.003107571043,744.0393677,0.001647838973,744.0393677,-0.00486878166,744.0393677,0.0008682024782
743.0465088,0.003359080991,743.0465088,0.002518980764,743.0465088,0.003741997527,743.0465088,0.002146999817,743.0465088,-0.005047721788,743.0465088,0.0008880193927
742.0532837,0.003303910373,742.0532837,0.001762809115,742.0532837,0.002795733279,742.0532837,0.001877965638,742.0532837,-0.005723047536,742.0532837,0.0007081181393
741.0597534,0.00288260309,741.0597534,0.001342188451,741.0597534,0.00244332524,741.0597534,0.001971256919,741.0597534,-0.004715426359,741.0597534,0.0007477641921
740.0658569,0.002814491978,740.0658569,0.001915274537,740.0658569,0.002297258005,740.0658569,0.001511624316,740.0658569,-0.005987685639,740.0658569,0.000766512414
738.9295044,0.00270119682,738.9295044,0.001326738857,738.9295044,0.001894422807,738.9295044,0.001212766743,738.9295044,-0.006043698173,738.9295044,0.0002883359557
737.9348755,0.002228275873,737.9348755,0.001079491107,737.9348755,0.001733414014,737.9348755,0.0007167264121,737.9348755,-0.006483582314,737.9348755,-2.4435667E-05
736.9398804,0.001875157817,736.9398804,0.0007466232637,736.9398804,0.001486090478,736.9398804,0.0006501724711,736.9398804,-0.005958016962,736.9398804,-0.000464870187
735.944519,0.002257392276,735.944519,0.001602706499,735.944519,0.001723823952,735.944519,0.0006398027181,735.944519,-0.006120684557,735.944519,-6.848887278E-05
734.9488525,0.002007767791,734.9488525,0.00163300219,734.9488525,0.00195198867,734.9488525,0.0006517798174,734.9488525,-0.006298701279,734.9488525,-7.376874419E-05
733.9528198,0.001785526052,733.9528198,0.001735389233,733.9528198,0.002063658088,733.9528198,0.001024064608,733.9528198,-0.005783385597,733.9528198,0.0006604387891
732.9564209,0.00238173781,732.9564209,0.001908670529,732.9564209,0.002536685904,732.9564209,0.002078951802,732.9564209,-0.006004791707,732.9564209,0.0009038943099
731.9596558,0.002362295054,731.9596558,0.001726630726,731.9596558,0.00275608222,731.9596558,0.0009818507824,731.9596558,-0.005842131563,731.9596558,0.0004091651062
730.9625854,0.001383658266,730.9625854,0.001319832285,730.9625854,0.002169762738,730.9625854,0.0001065597171,730.9625854,-0.006566303782,730.9625854,0.000342451036
729.9651489,0.002044307534,729.9651489,0.001096255379,729.9651489,0.001480791601,729.9651489,-0.0001939461363,729.9651489,-0.006633612327,729.9651489,-0.0003119174216
728.9674072,0.001044122153,728.9674072,0.0003808460024,728.9674072,0.0008853995823,728.9674072,-0.00086512696,728.9674072,-0.007375809364,728.9674072,-0.0009114198037
727.9692993,0.0001310545485,727.9692993,-0.0009451030637,727.9692993,0.000438963034,727.9692993,-0.001291341265,727.9692993,-0.007855125703,727.9692993,-0.001952737803
726.9708252,-0.000703889993,726.9708252,-0.001133154146,726.9708252,-0.0008686404326,726.9708252,-0.00212407345,726.9708252,-0.008525138721,726.9708252,-0.002659955993
725.9720459,-0.001406589407,725.9720459,-0.001995153027,725.9720459,-0.0009504755726,725.9720459,-0.002893194091,725.9720459,-0.009472962469,725.9720459,-0.002487235935
724.9729004,-0.001931142178,724.9729004,-0.002596403472,724.9729004,-0.001942687435,724.9729004,-0.003279042663,724.9729004,-0.01033005863,724.9729004,-0.003408866702
723.9733887,-0.001903875498,723.9733887,-0.003304681741,723.9733887,-0.00249382481,723.9733887,-0.003056550631,723.9733887,-0.01013684459,723.9733887,-0.003944142256
722.9735718,-0.002592698205,722.9735718,-0.002978607779,722.9735718,-0.002574942773,722.9735718,-0.004010934848,722.9735718,-0.01043990068,722.9735718,-0.004657398444
721.9733887,-0.002958348719,721.9733887,-0.003969588317,721.9733887,-0.003256793367,721.9733887,-0.004566678777,721.9733887,-0.01119242888,721.9733887,-0.004595776554
720.9729004,-0.003478669096,720.9729004,-0.004117053002,720.9729004,-0.003040819196,720.9729004,-0.0051693446,720.9729004,-0.0110928705,720.9729004,-0.005274669267
719.9720459,-0.00297840219,719.9720459,-0.004339053761,719.9720459,-0.002922764281,719.9720459,-0.004628970753,719.9720459,-0.0115368478,719.9720459,-0.004743644036
718.9708252,-0.003382977098,718.9708252,-0.004111719783,718.9708252,-0.003305863356,718.9708252,-0.004751786124,718.9708252,-0.01170278154,718.9708252,-0.005077247974
717.9692993,-0.003212805372,717.9692993,-0.004061099142,717.9692993,-0.003672197694,717.9692993,-0.00428758841,717.9692993,-0.01174793299,717.9692993,-0.005056165624
716.9674683,-0.003194201738,716.9674683,-0.004267339129,716.9674683,-0.003443281399,716.9674683,-0.004847842734,716.9674683,-0.01168045588,716.9674683,-0.004594598431
715.965271,-0.003133554244,715.965271,-0.003787329188,715.965271,-0.002936443081,715.965271,-0.004515906796,715.965271,-0.01140151359,715.965271,-0.004575644154
714.9627075,-0.002833790379,714.9627075,-0.003512564814,714.9627075,-0.003199135419,714.9627075,-0.003926134203,714.9627075,-0.01085823961,714.9627075,-0.004846255761
713.9598389,-0.002218292095,713.9598389,-0.002798864618,713.9598389,-0.00238427124,713.9598389,-0.003116283566,713.9598389,-0.009901696816,713.9598389,-0.004215044901
712.956604,-0.001351936837,712.956604,-0.002253676765,712.956604,-0.001768753747,712.956604,-0.003321585245,712.956604,-0.008940557949,712.956604,-0.003330267966
711.953064,-0.0007410004619,711.953064,-0.001416652231,711.953064,-0.001078002271,711.953064,-0.001860678196,711.953064,-0.008612243459,711.953064,-0.002499795984
710.9491577,-0.0003768397146,710.9491577,-0.0008243582561,710.9491577,6.029260476E-05,710.9491577,-0.001102790586,710.9491577,-0.007786531933,710.9491577,-0.001498281024
709.9449463,0.001454194658,709.9449463,0.0004930709838,709.9449463,0.001282574376,709.9449463,-0.0001566853898,709.9449463,-0.007001125254,709.9449463,-0.0006568512763
708.9403687,0.00254548667,708.9403687,0.001404251903,708.9403687,0.001870634151,708.9403687,0.0004819275055,708.9403687,-0.006681639701,708.9403687,0.0002539379057
707.9354858,0.003617209848,707.9354858,0.00230311323,707.9354858,0.003268725006,707.9354858,0.001939741545,707.9354858,-0.005515606608,707.9354858,0.001592288027
706.9302368,0.004755933769,706.9302368,0.003865228035,706.9302368,0.004531601444,706.9302368,0.002747303108,706.9302368,-0.003783890512,706.9302368,0.002559808083
706.0683594,0.005981417373,706.0683594,0.004603095818,706.0683594,0.005171859171,706.0683594,0.004189909901,706.0683594,-0.002022414003,706.0683594,0.003855042392
705.0625,0.007332454901,705.0625,0.006302590482,705.0625,0.006967640482,705.0625,0.005623137578,705.0625,-0.001161605236,705.0625,0.005293923896
704.0563354,0.007927055471,704.0563354,0.008390471339,704.0563354,0.008480763994,704.0563354,0.007268775254,704.0563354,0.0002133786766,704.0563354,0.00662429072
703.0498047,0.009156879969,703.0498047,0.008825347759,703.0498047,0.009491496719,703.0498047,0.008235055953,703.0498047,0.001081048045,703.0498047,0.007419894449
702.0429688,0.01076519582,702.0429688,0.01049262751,702.0429688,0.01129713655,702.0429688,0.009352059104,702.0429688,0.002705390332,702.0429688,0.008758094162
701.0357666,0.01213055477,701.0357666,0.01181568392,701.0357666,0.01224628463,701.0357666,0.01053508651,701.0357666,0.00391736161,701.0357666,0.01025240496
700.0282593,0.01343274675,700.0282593,0.01289698575,700.0282593,0.01327839959,700.0282593,0.01246419549,700.0282593,0.005226455163,700.0282593,0.01157124713
699.0204468,0.01460797619,699.0204468,0.0142258741,699.0204468,0.01572532766,699.0204468,0.01345885918,699.0204468,0.007219501305,699.0204468,0.01317032054
698.0122681,0.01608769037,698.0122681,0.01584373787,698.0122681,0.01659437828,698.0122681,0.01458781771,698.0122681,0.007891994901,698.0122681,0.01447927766
697.0037842,0.01777931117,697.0037842,0.01734747738,697.0037842,0.01747985743,697.0037842,0.01649732701,697.0037842,0.009415304288,697.0037842,0.01604465768
695.9949341,0.01928412355,695.9949341,0.01918241195,695.9949341,0.0195911061,695.9949341,0.01758362353,695.9949341,0.01091960724,695.9949341,0.01648434065
694.9857788,0.02024928108,694.9857788,0.01952571236,694.9857788,0.01937216334,694.9857788,0.01783689111,694.9857788,0.01160748396,694.9857788,0.0181336496
693.9763184,0.02083406039,693.9763184,0.02030640282,693.9763184,0.02106132545,693.9763184,0.01941582374,693.9763184,0.0129092792,693.9763184,0.01880905218
692.9664917,0.02263688296,692.9664917,0.02107664943,692.9664917,0.02164491452,692.9664917,0.02012624778,692.9664917,0.01388745755,692.9664917,0.02078213729
691.9563599,0.02318444848,691.9563599,0.02256069332,691.9563599,0.02241002023,691.9563599,0.02133171819,691.9563599,0.01451846119,691.9563599,0.02055749111
690.9458618,0.02344682254,690.9458618,0.02334907651,690.9458618,0.02367105708,690.9458618,0.02294357121,690.9458618,0.01566504873,690.9458618,0.021480795
689.9350586,0.02493998781,689.9350586,0.0248194579,689.9350586,0.02444880642,689.9350586,0.02309440449,689.9350586,0.01648337208,689.9350586,0.02277396806
689.0684204,0.02566739544,689.0684204,0.02490966767,689.0684204,0.02495747991,689.0684204,0.02391299419,689.0684204,0.01698863693,689.0684204,0.02359414101
688.0570068,0.02617277019,688.0570068,0.02574863657,688.0570068,0.02667444013,688.0570068,0.02569694631,688.0570068,0.01806696318,688.0570068,0.02586505748
687.0452881,0.0263289921,687.0452881,0.02661606297,687.0452881,0.02650706097,687.0452881,0.02662239224,687.0452881,0.01786100492,687.0452881,0.02482529543
686.0332642,0.02700258791,686.0332642,0.02650499716,686.0332642,0.02707652934,686.0332642,0.02575863525,686.0332642,0.01793019474,686.0332642,0.02537395433
685.020874,0.0275264252,685.020874,0.02599706501,685.020874,0.02683786303,685.020874,0.02567656897,685.020874,0.01882835291,685.020874,0.02506518923
684.0081787,0.02774231881,684.0081787,0.02675339207,684.0081787,0.02761935256,684.0081787,0.0264058169,684.0081787,0.01925595291,684.0081787,0.02517218143
682.9951782,0.02877590433,682.9951782,0.02744231559,682.9951782,0.02873328328,682.9951782,0.02729743719,682.9951782,0.01950968429,682.9951782,0.026415281
681.9818726,0.02876694128,681.9818726,0.02803084999,681.9818726,0.02911815606,681.9818726,0.02766837552,681.9818726,0.02018945478,681.9818726,0.02758556046
680.9682007,0.02948206477,680.9682007,0.02869569883,680.9682007,0.02910771966,680.9682007,0.02780752815,680.9682007,0.02108434029,680.9682007,0.0273981709
679.9542236,0.02997728251,679.9542236,0.02907657996,679.9542236,0.02894894592,679.9542236,0.02780349739,679.9542236,0.02096460201,679.9542236,0.02764801495
678.9398804,0.02942322567,678.9398804,0.02918174304,678.9398804,0.02972945012,678.9398804,0.02769022621,678.9398804,0.02106333524,678.9398804,0.02756785229
678.0702515,0.02967118658,678.0702515,0.02977491356,678.0702515,0.03012952395,678.0702515,0.02892559394,678.0702515,0.02208189107,678.0702515,0.02756691538
677.0553589,0.03078317456,677.0553589,0.02993288077,677.0553589,0.03083925322,677.0553589,0.02992530912,677.0553589,0.02189016342,677.0553589,0.02950084768
676.0401001,0.03118116222,676.0401001,0.03001084551,676.0401001,0.0306424275,676.0401001,0.02961534262,676.0401001,0.02247674949,676.0401001,0.02922211029
675.0245972,0.03136699274,675.0245972,0.02915646695,675.0245972,0.03019270487,675.0245972,0.02964937501,675.0245972,0.02154653892,675.0245972,0.02891729213
674.008728,0.03038091585,674.008728,0.02967537194,674.008728,0.03091337904,674.008728,0.02946397476,674.008728,0.02225536481,674.008728,0.02896042913
672.9925537,0.03112370335,672.9925537,0.03092774935,672.9925537,0.03113093413,672.9925537,0.0299933143,672.9925537,0.02292736061,672.9925537,0.02969227917
671.9760742,0.03126496822,671.9760742,0.03020774573,671.9760742,0.03055865504,671.9760742,0.0292102322,671.9760742,0.02233517915,671.9760742,0.02908959053
670.9592896,0.03119264916,670.9592896,0.03102994151,670.9592896,0.03135922924,670.9592896,0.02972867526,670.9592896,0.02246543579,670.9592896,0.03082522005
669.9421387,0.03153038025,669.9421387,0.03110568412,669.9421387,0.03197884187,669.9421387,0.02984267473,669.9421387,0.02306928858,669.9421387,0.02993368544
669.0700684,0.03092155047,669.0700684,0.03048181348,669.0700684,0.03124193661,669.0700684,0.03036078997,669.0700684,0.02240203321,669.0700684,0.02943375148
668.0523682,0.03125270084,668.0523682,0.03010083735,668.0523682,0.02998152748,668.0523682,0.03014511801,668.0523682,0.02330955118,668.0523682,0.02906019613
667.0343018,0.02998660319,667.0343018,0.02880314924,667.0343018,0.03028792515,667.0343018,0.02855916508,667.0343018,0.0219683852,667.0343018,0.02878787927
666.0159912,0.02981145494,666.0159912,0.02977411076,666.0159912,0.02956332825,666.0159912,0.02832145058,666.0159912,0.02161308192,666.0159912,0.02793449536
664.9973145,0.02943926305,664.9973145,0.02904530428,664.9973145,0.02996119671,664.9973145,0.02882583067,664.9973145,0.02088609897,664.9973145,0.02793322504
663.9783936,0.02927820943,663.9783936,0.02889698558,663.9783936,0.0289892368,663.9783936,0.02803339064,663.9783936,0.02108387835,663.9783936,0.02797502279
662.9591064,0.02926034853,662.9591064,0.02797872201,662.9591064,0.02929457463,662.9591064,0.02793093398,662.9591064,0.02017600462,662.9591064,0.02706674859
661.9395142,0.02899900451,661.9395142,0.02842482924,661.9395142,0.02880959399,661.9395142,0.02730383165,661.9395142,0.02053933404,661.9395142,0.02702035569
661.0653076,0.02893884666,661.0653076,0.02764128335,661.0653076,0.02877759002,661.0653076,0.02731397562,661.0653076,0.01999254338,661.0653076,0.02745235339
660.045105,0.02837077342,660.045105,0.02830025926,660.045105,0.02935121022,660.045105,0.02775081806,660.045105,0.01999999769,660.045105,0.02728916705
659.0246582,0.0289540384,659.0246582,0.02853337117,659.0246582,0.02833813988,659.0246582,0.02710187808,659.0246582,0.01998766325,659.0246582,0.02746716142
658.0038452,0.0282338988,658.0038452,0.02811982483,658.0038452,0.02894570865,658.0038452,0.0275620874,658.0038452,0.02027252503,658.0038452,0.02666951343
656.9827271,0.02831227705,656.9827271,0.02802055143,656.9827271,0.0289239604,656.9827271,0.0275589712,656.9827271,0.01989375427,656.9827271,0.02691654116
655.9613037,0.02867224813,655.9613037,0.02763612382,655.9613037,0.02888387069,655.9613037,0.02709578909,655.9613037,0.01945098862,655.9613037,0.0275091622
654.9395752,0.02863455936,654.9395752,0.02738634311,654.9395752,0.02856646292,654.9395752,0.02742097341,654.9395752,0.01996180601,654.9395752,0.02679221146
654.0635376,0.02827575244,654.0635376,0.02773826197,654.0635376,0.02797695436,654.0635376,0.02740591951,654.0635376,0.01976209879,654.0635376,0.02751930989
653.0412598,0.02876038663,653.0412598,0.02730317041,653.0412598,0.02868762426,653.0412598,0.02702768333,653.0412598,0.01984422095,653.0412598,0.02667138539
652.0186768,0.02852126397,652.0186768,0.02779337019,652.0186768,0.02842518687,652.0186768,0.02758084424,652.0186768,0.01990424283,652.0186768,0.02673489042
650.9957275,0.02855747752,650.9957275,0.02816116996,650.9957275,0.02891267277,650.9957275,0.02750852704,650.9957275,0.01994410902,650.9957275,0.02669431455
649.9724731,0.02862242237,649.9724731,0.02831277438,649.9724731,0.02838657983,649.9724731,0.02727530152,649.9724731,0.01981208473,649.9724731,0.02730873786
648.9489746,0.02930905856,648.9489746,0.02758823708,648.9489746,0.02892066911,648.9489746,0.02734793909,648.9489746,0.01974229701,648.9489746,0.02684001066
648.0714111,0.02840675414,648.0714111,0.02753720991,648.0714111,0.02877496369,648.0714111,0.02659690753,648.0714111,0.0201447662,648.0714111,0.02702195384
647.0473022,0.02857072093,647.0473022,0.02782552131,647.0473022,0.02869793959,647.0473022,0.02736078575,647.0473022,0.02000116184,647.0473022,0.02649421245
646.0228882,0.02863221057,646.0228882,0.02765328437,646.0228882,0.02864802629,646.0228882,0.02688539401,646.0228882,0.02015024424,646.0228882,0.02733495459
644.9981689,0.02921690419,644.9981689,0.0283955615,644.9981689,0.02856588177,644.9981689,0.02722276933,644.9981689,0.01951872744,644.9981689,0.02661658451
643.9731445,0.02876774408,643.9731445,0.02773818001,643.9731445,0.02887819894,643.9731445,0.02763223462,643.9731445,0.01974866167,643.9731445,0.02731783502
642.947876,0.02906484529,642.947876,0.02855294384,642.947876,0.0282692872,642.947876,0.02770589665,642.947876,0.01990093663,642.947876,0.02727549523
642.0687866,0.02856928296,642.0687866,0.02740853839,642.0687866,0.02884336933,642.0687866,0.027691219,642.0687866,0.01965250261,642.0687866,0.02689150721
641.0429077,0.02870147862,641.0429077,0.0275489036,641.0429077,0.02876337431,641.0429077,0.02701749094,641.0429077,0.01955105737,641.0429077,0.026809806
640.0167236,0.02804159001,640.0167236,0.02711237594,640.0167236,0.02855297178,640.0167236,0.02756498381,640.0167236,0.0205318965,640.0167236,0.02735392191
638.9902344,0.0290130917,638.9902344,0.02811913379,638.9902344,0.02899919823,638.9902344,0.02785149217,638.9902344,0.02015008219,638.9902344,0.02687704936
637.9634399,0.02870075963,637.9634399,0.02789836004,637.9634399,0.02915070951,637.9634399,0.02775614336,637.9634399,0.01979726553,637.9634399,0.02703925408
636.9363403,0.02961340174,636.9363403,0.02825566754,636.9363403,0.02863497473,636.9363403,0.02773644216,636.9363403,0.02077312209,636.9363403,0.02725016512
636.0557251,0.02909429558,636.0557251,0.02822732553,636.0557251,0.02882060222,636.0557251,0.02722271346,636.0557251,0.02058843151,636.0557251,0.02741567977
635.0280762,0.02876992896,635.0280762,0.02798918635,635.0280762,0.02874888107,635.0280762,0.0277909413,635.0280762,0.02002962492,635.0280762,0.02767276205
634.0001221,0.0286294166,634.0001221,0.02855814062,634.0001221,0.02909501456,634.0001221,0.02750907838,634.0001221,0.02017939463,634.0001221,0.0271588061
632.9718628,0.02901549824,632.9718628,0.02814037167,632.9718628,0.02934132144,632.9718628,0.02792209946,632.9718628,0.02056951448,632.9718628,0.02697774209
631.9433594,0.02884948254,631.9433594,0.02794849128,631.9433594,0.02810386196,631.9433594,0.02740622312,631.9433594,0.01984855533,631.9433594,0.0274347607
631.0614624,0.02868997492,631.0614624,0.02825959027,631.0614624,0.02883501537,631.0614624,0.02754730359,631.0614624,0.02042769454,631.0614624,0.0281982366
630.0324097,0.02910046838,630.0324097,0.02827517316,630.0324097,0.02858235873,630.0324097,0.02795495093,630.0324097,0.02022972703,630.0324097,0.02755563334
629.0029907,0.02916970104,629.0029907,0.02825216018,629.0029907,0.02918634005,629.0029907,0.02817299031,629.0029907,0.02028120309,629.0029907,0.02764649689
627.9732666,0.02966927551,627.9732666,0.02860989608,627.9732666,0.02903833054,627.9732666,0.02818923257,627.9732666,0.02042742446,627.9732666,0.0276756864
626.9432983,0.02893256582,626.9432983,0.02848145925,626.9432983,0.02936392277,626.9432983,0.02800889872,626.9432983,0.02023778111,626.9432983,0.02788974904
626.0602417,0.0294681564,626.0602417,0.0283439979,626.0602417,0.02924559079,626.0602417,0.02810955048,626.0602417,0.02027287707,626.0602417,0.02852657251
625.0296631,0.02942383476,625.0296631,0.02855822444,625.0296631,0.03063126095,625.0296631,0.02797957696,625.0296631,0.02038257569,625.0296631,0.02800376341
623.9988403,0.03008402325,623.9988403,0.02898508497,623.9988403,0.02919032611,623.9988403,0.02849406376,623.9988403,0.01997270249,623.9988403,0.02769309469
622.9677124,0.02949220501,622.9677124,0.02901804447,622.9677124,0.02975087985,622.9677124,0.02742491663,622.9677124,0.0203736499,622.9677124,0.02772761136
621.9362793,0.02906384878,621.9362793,0.02833764255,621.9362793,0.02949561179,621.9362793,0.02811206318,621.9362793,0.02063911036,621.9362793,0.02750210091
621.052002,0.02949098498,621.052002,0.02946444601,621.052002,0.02885507233,621.052002,0.02775103785,621.052002,0.02012659982,621.052002,0.02823989466
620.0200195,0.02888406441,620.0200195,0.02894709259,620.0200195,0.02911480702,620.0200195,0.02845810354,620.0200195,0.0201664865,620.0200195,0.02815564536
618.9877319,0.0294944495,618.9877319,0.02873419598,618.9877319,0.02904397622,618.9877319,0.02765976638,618.9877319,0.02116342261,618.9877319,0.02756812796
617.9552002,0.02925104462,617.9552002,0.02886337042,617.9552002,0.0294682961,617.9552002,0.02815664001,617.9552002,0.02065053955,617.9552002,0.02764624916
617.0698853,0.02853384241,617.0698853,0.02870385721,617.0698853,0.02982966974,617.0698853,0.02817039564,617.0698853,0.02084614709,617.0698853,0.02729831822
616.0368042,0.0294330027,616.0368042,0.02961221151,616.0368042,0.02879072912,616.0368042,0.02756261267,616.0368042,0.0205800999,616.0368042,0.02763091028
615.003418,0.02869561687,615.003418,0.02883443423,615.003418,0.02882118337,615.003418,0.02819196694,615.003418,0.02009664103,615.003418,0.02724900655
613.9697266,0.02897650748,613.9697266,0.02907065675,613.9697266,0.02920270152,613.9697266,0.02784666233,613.9697266,0.02040851302,613.9697266,0.02720887773
612.935791,0.02837323397,612.935791,0.02837671526,612.935791,0.02872006223,612.935791,0.02859670855,612.935791,0.0197934173,612.935791,0.02759162895
612.0493164,0.02971057408,612.0493164,0.02833137102,612.0493164,0.02889311127,612.0493164,0.0275522694,612.0493164,0.02019249275,612.0493164,0.02745938487
611.0148315,0.02868707106,611.0148315,0.02855169959,611.0148315,0.02878090926,611.0148315,0.02791754529,611.0148315,0.01983712055,611.0148315,0.02726140991
609.9799805,0.02879523858,609.9799805,0.02834333479,609.9799805,0.02881993912,609.9799805,0.02754661441,609.9799805,0.02006573416,609.9799805,0.02742392384
608.9449463,0.02883999422,608.9449463,0.02781337872,608.9449463,0.02895207331,608.9449463,0.02794056758,608.9449463,0.02058647759,608.9449463,0.02747215331
608.0574951,0.02863790654,608.0574951,0.02804567665,608.0574951,0.02932827733,608.0574951,0.0277236104,608.0574951,0.02010526136,608.0574951,0.02733696625
607.0218506,0.028760802,607.0218506,0.02799813077,607.0218506,0.02846678346,607.0218506,0.02757687308,607.0218506,0.02002152056,607.0218506,0.02740134299
605.9859619,0.02839608677,605.9859619,0.02803369425,605.9859619,0.02891776338,605.9859619,0.02718498558,605.9859619,0.02019550279,605.9859619,0.0274315346
604.9497681,0.02888129838,604.9497681,0.02806241065,604.9497681,0.02900221571,604.9497681,0.02766820975,604.9497681,0.02001276426,604.9497681,0.02722739801
604.0614014,0.02863917686,604.0614014,0.0281711407,604.0614014,0.02889211476,604.0614014,0.02760288306,604.0614014,0.01965239458,604.0614014,0.027317008
603.0247192,0.02882063016,603.0247192,0.02799178101,603.0247192,0.02887844853,603.0247192,0.02745036781,603.0247192,0.01990803704,603.0247192,0.02696328051
601.9876709,0.02872523479,601.9876709,0.02820856869,601.9876709,0.02918179892,601.9876709,0.02725231461,601.9876709,0.01993058436,601.9876709,0.0273793675
600.9504395,0.02841147967,600.9504395,0.02753406577,600.9504395,0.0284284763,600.9504395,0.02774262242,600.9504395,0.02041548677,600.9504395,0.02701049484
600.0610962,0.02865009941,600.0610962,0.02762434445,600.0610962,0.02832916006,600.0610962,0.02737867832,600.0610962,0.01962057129,600.0610962,0.02779105119
599.0232544,0.02821831964,599.0232544,0.02788174339,599.0232544,0.0289609842,599.0232544,0.02841684222,599.0232544,0.01913752966,599.0232544,0.02687324956
597.9851685,0.02832476608,597.9851685,0.02743156254,597.9851685,0.02849345654,597.9851685,0.02709664218,597.9851685,0.01964684203,597.9851685,0.0268922504
596.9468384,0.0289498046,596.9468384,0.02792085893,596.9468384,0.02857052721,596.9468384,0.02745260112,596.9468384,0.01971756294,596.9468384,0.02734259143
596.0565796,0.02807591483,596.0565796,0.02787547745,596.0565796,0.02851963416,596.0565796,0.02707732841,596.0565796,0.0198052302,596.0565796,0.0271505937
595.0176392,0.02834082022,595.0176392,0.02766200155,595.0176392,0.028330734,595.0176392,0.02743812464,595.0176392,0.01938826777,595.0176392,0.02736693434
593.9784546,0.02810272947,593.9784546,0.02787390538,593.9784546,0.02865717933,593.9784546,0.02807174437,593.9784546,0.01921826042,593.9784546,0.0265737623
592.9390259,0.02847452275,592.9390259,0.02741730586,592.9390259,0.02922324464,592.9390259,0.02689751051,592.9390259,0.01953413337,592.9390259,0.02705793269
592.0478516,0.02885391004,592.0478516,0.02744708583,592.0478516,0.0282657519,592.0478516,0.02714340203,592.0478516,0.01917759702,592.0478516,0.0267950464
591.0078735,0.02808077447,591.0078735,0.02727408893,591.0078735,0.02811794542,591.0078735,0.02765654027,591.0078735,0.01879502274,591.0078735,0.02648180351
589.9675903,0.0281198509,589.9675903,0.02803159505,589.9675903,0.02808555216,589.9675903,0.02707286552,589.9675903,0.01922164299,589.9675903,0.02646898106
588.927063,0.02779585309,588.927063,0.02705278061,588.927063,0.02814860269,588.927063,0.0272635594,588.927063,0.01842799038,588.927063,0.02663246542
588.0349731,0.0277028624,588.0349731,0.02754178829,588.0349731,0.02775846235,588.0349731,0.02640339546,588.0349731,0.01868337207,588.0349731,0.02690202743
586.9938965,0.02796489,586.9938965,0.027679272,586.9938965,0.02801754139,586.9938965,0.02698900737,586.9938965,0.01913606934,586.9938965,0.02624129131
585.9525757,0.02752159908,585.9525757,0.02723332494,585.9525757,0.02810040861,585.9525757,0.0266564656,585.9525757,0.01847604103,585.9525757,0.02646254376
585.0597534,0.02755902708,585.0597534,0.02659071423,585.0597534,0.02847897261,585.0597534,0.02657571621,585.0597534,0.01811348833,585.0597534,0.02669511177
584.0179443,0.02729233727,584.0179443,0.02691855282,584.0179443,0.02764906362,584.0179443,0.02677142434,584.0179443,0.01867404953,584.0179443,0.02633506991
582.9758301,0.02676602826,582.9758301,0.02652717568,582.9758301,0.02739795111,582.9758301,0.02634315751,582.9758301,0.01857845113,582.9758301,0.02594523504
581.9334106,0.02716547437,581.9334106,0.02608680539,581.9334106,0.02740886994,581.9334106,0.02587585524,581.9334106,0.01792372018,581.9334106,0.02606121451
581.0397339,0.0270763915,581.0397339,0.02605915256,581.0397339,0.0273501724,581.0397339,0.02640834823,581.0397339,0.01792366616,581.0397339,0.02600374259
579.9968262,0.0267628897,579.9968262,0.02674772032,579.9968262,0.02749972977,579.9968262,0.02568961307,579.9968262,0.0177613236,579.9968262,0.02585989237
578.9536743,0.02636384033,578.9536743,0.02610090747,578.9536743,0.02654316276,578.9536743,0.02595141903,578.9536743,0.01780309714,578.9536743,0.02530060336
578.0592651,0.02683527581,578.0592651,0.02632651664,578.0592651,0.02715775743,578.0592651,0.02578352019,578.0592651,0.0175784491,578.0592651,0.02543191798
577.015625,0.02654131874,577.015625,0.02597777173,577.015625,0.02655846253,577.015625,0.02578335628,577.015625,0.01721720956,577.015625,0.02524858341
575.9716187,0.02623766102,575.9716187,0.02588841133,575.9716187,0.02666797116,575.9716187,0.02555391006,575.9716187,0.01689992286,575.9716187,0.02478284203
574.9274292,0.02671944723,574.9274292,0.02555794641,574.9274292,0.02615091391,574.9274292,0.02514220215,574.9274292,0.01721516252,574.9274292,0.02531413175
574.0321655,0.02630110458,574.0321655,0.02532870322,574.0321655,0.02605055086,574.0321655,0.0248770453,574.0321655,0.01706075855,574.0321655,0.02483450435
572.9874268,0.02600946091,572.9874268,0.0254259631,572.9874268,0.02572861314,572.9874268,0.02481392026,572.9874268,0.01671439596,572.9874268,0.02431872115
571.9424438,0.02561297081,571.9424438,0.02488000691,571.9424438,0.02593924478,571.9424438,0.02458383702,571.9424438,0.01702804863,571.9424438,0.02423227206
571.0465088,0.02527758293,571.0465088,0.02524704672,571.0465088,0.02553024516,571.0465088,0.02440170757,571.0465088,0.01647823676,571.0465088,0.02400750294
570.0009766,0.02522282302,570.0009766,0.0247707013,570.0009766,0.02525354922,570.0009766,0.02430341765,570.0009766,0.01614749245,570.0009766,0.02379096858
568.9552002,0.02475107834,568.9552002,0.02454335056,568.9552002,0.02518266067,568.9552002,0.02435165644,568.9552002,0.01658055373,568.9552002,0.02364517003
568.0585938,0.02471485175,568.0585938,0.02403062023,568.0585938,0.02465279214,568.0585938,0.02380557172,568.0585938,0.01582730748,568.0585938,0.02348250709
567.0123291,0.02438437566,567.0123291,0.02395150624,567.0123291,0.02498769574,567.0123291,0.02353229374,567.0123291,0.01587692276,567.0123291,0.02344496548
565.9658203,0.02453444898,565.9658203,0.0237947423,565.9658203,0.02473756857,565.9658203,0.02344471961,565.9658203,0.01552621741,565.9658203,0.02280613221
565.0685425,0.02398744971,565.0685425,0.02346135862,565.0685425,0.02410104685,565.0685425,0.02308493108,565.0685425,0.0152338082,565.0685425,0.02302618697
564.0215454,0.02391239256,564.0215454,0.02310565114,564.0215454,0.02393815666,564.0215454,0.02313341759,564.0215454,0.01507177204,564.0215454,0.02266243659
562.9742432,0.02362357639,562.9742432,0.02321948111,562.9742432,0.02361321822,562.9742432,0.02283884399,562.9742432,0.01470200717,562.9742432,0.02291554585
561.9266968,0.023270851,561.9266968,0.02275146358,561.9266968,0.0231359005,561.9266968,0.02205574512,561.9266968,0.01408520248,561.9266968,0.02220163681
561.0285645,0.02318177186,561.0285645,0.02259854041,561.0285645,0.0229578726,561.0285645,0.02232343331,561.0285645,0.01407097746,561.0285645,0.02192569152
559.9804688,0.02295301482,559.9804688,0.02289925516,559.9804688,0.02282337472,559.9804688,0.02194804512,559.9804688,0.01415898278,559.9804688,0.0217545256
558.9321899,0.02243160829,558.9321899,0.02214146033,558.9321899,0.02295784466,558.9321899,0.02211738005,558.9321899,0.01314769406,558.9321899,0.02141495235
558.0333862,0.02222972549,558.0333862,0.02174940892,558.0333862,0.02205982991,558.0333862,0.02142172493,558.0333862,0.01337980572,558.0333862,0.02102051303
556.9845581,0.02176894993,556.9845581,0.02166700922,556.9845581,0.02205982991,556.9845581,0.02135485783,556.9845581,0.01302326843,556.9845581,0.02077575587
555.9354858,0.02145305276,555.9354858,0.02125641145,555.9354858,0.02178775705,555.9354858,0.02063593455,555.9354858,0.01260415558,555.9354858,0.0207206104
555.0360718,0.02131034806,555.0360718,0.02072223835,555.0360718,0.02125972696,555.0360718,0.02037899569,555.0360718,0.01227357704,555.0360718,0.02032395266
553.9865112,0.0209544152,553.9865112,0.0205576811,553.9865112,0.02105059102,553.9865112,0.01992440596,553.9865112,0.01180799678,553.9865112,0.02014818415
552.9367065,0.02085730992,552.9367065,0.02028253302,552.9367065,0.02101043426,552.9367065,0.01981013454,552.9367065,0.01169121452,552.9367065,0.01967230253
552.0366821,0.0206555333,552.0366821,0.01982362755,552.0366821,0.02079240233,552.0366821,0.01965732314,552.0366821,0.01157762762,552.0366821,0.01915305853
550.9863281,0.020291619,550.9863281,0.01975876652,550.9863281,0.02027998306,550.9863281,0.01959013194,550.9863281,0.01095106453,550.9863281,0.01904964633
549.935791,0.0199914854,549.935791,0.01973259822,549.935791,0.02044785582,549.935791,0.01881061867,549.935791,0.01088783424,549.935791,0.01888907328
549.0350952,0.01994123496,549.0350952,0.01949825883,549.0350952,0.01964459382,549.0350952,0.01941400953,549.0350952,0.01097954996,549.0350952,0.01887255348
547.9840698,0.01969760098,547.9840698,0.01910523139,547.9840698,0.01964261755,547.9840698,0.01889120974,547.9840698,0.01080441661,547.9840698,0.01892838627
546.9327393,0.01939151622,546.9327393,0.0192644503,546.9327393,0.01960743591,546.9327393,0.01861038618,546.9327393,0.01091639511,546.9327393,0.01851466857
546.0314331,0.01931383833,546.0314331,0.01869193837,546.0314331,0.01960575767,546.0314331,0.01860487461,546.0314331,0.01032346953,546.0314331,0.0181423407
544.9796143,0.01887176931,544.9796143,0.01854900271,544.9796143,0.01949850097,544.9796143,0.01829669811,544.9796143,0.01031511929,544.9796143,0.0181576442
543.9276123,0.01886190102,543.9276123,0.01834473386,543.9276123,0.01922946237,543.9276123,0.01803242229,543.9276123,0.009918102063,543.9276123,0.01778038964
543.0256348,0.01878029108,543.0256348,0.01835842431,543.0256348,0.01895404607,543.0256348,0.01804456487,543.0256348,0.01017862372,543.0256348,0.01787697151
541.9730835,0.01873517968,541.9730835,0.01825366169,541.9730835,0.01877515577,541.9730835,0.0178632699,541.9730835,0.009615972638,541.9730835,0.01780884154
541.0707397,0.01886336133,541.0707397,0.01833225787,541.0707397,0.0191012267,541.0707397,0.01795423217,541.0707397,0.01011664513,541.0707397,0.01782030426
540.0177612,0.01901705563,540.0177612,0.01846604608,540.0177612,0.019097846,540.0177612,0.01838899218,540.0177612,0.00984898489,540.0177612,0.01786299981
538.9644775,0.01918979734,538.9644775,0.01857253537,538.9644775,0.01916185021,538.9644775,0.01833125949,538.9644775,0.01010543667,538.9644775,0.01805611514
538.0615234,0.01927354187,538.0615234,0.01851210184,538.0615234,0.01954653487,538.0615234,0.01827655546,538.0615234,0.01028020959,538.0615234,0.01804170571
537.0078125,0.019210333,537.0078125,0.01880213246,537.0078125,0.01934201084,537.0078125,0.01855700091,537.0078125,0.01048703212,537.0078125,0.01831468008
535.9537964,0.01973552443,535.9537964,0.01924426481,535.9537964,0.0198639743,535.9537964,0.01887969114,535.9537964,0.01106209867,535.9537964,0.01864483766
535.0502319,0.02010827139,535.0502319,0.01951228268,535.0502319,0.02008622885,535.0502319,0.01906977035,535.0502319,0.01112020202,535.0502319,0.01892568171
533.9957886,0.02057608217,533.9957886,0.01974264905,533.9957886,0.02066481858,533.9957886,0.01968885027,533.9957886,0.01118893735,533.9957886,0.01929602958
532.9411011,0.02102219872,532.9411011,0.02049420215,532.9411011,0.02112298273,532.9411011,0.02075609751,532.9411011,0.01187343616,532.9411011,0.02085437626
532.0368652,0.02156501077,532.0368652,0.02101388387,532.0368652,0.02155627683,532.0368652,0.02085277252,532.0368652,0.01239123568,532.0368652,0.02106107958
530.9816895,0.02208169922,530.9816895,0.02195610479,530.9816895,0.02214012481,530.9816895,0.02137196064,530.9816895,0.01294477377,530.9816895,0.02093705721
529.9262695,0.02335754409,529.9262695,0.02246126533,529.9262695,0.0229823254,529.9262695,0.0221429579,529.9262695,0.01385749783,529.9262695,0.02234286442
529.0214233,0.02431135625,529.0214233,0.02298811078,529.0214233,0.02368395962,529.0214233,0.02294842899,529.0214233,0.01444753725,529.0214233,0.02264059149
527.9655762,0.02522630617,527.9655762,0.02471367456,527.9655762,0.02451582253,527.9655762,0.02352688275,527.9655762,0.01596156135,527.9655762,0.02352759428
527.0603027,0.02538526058,527.0603027,0.02487142757,527.0603027,0.02584706247,527.0603027,0.02441348135,527.0603027,0.01622745395,527.0603027,0.02431521565
526.0039673,0.02659071423,526.0039673,0.02539527789,526.0039673,0.02629615366,526.0039673,0.02536229044,526.0039673,0.01697380655,526.0039673,0.02521692403
524.9473877,0.02761209756,524.9473877,0.02675339207,524.9473877,0.0269325152,524.9473877,0.02618379518,524.9473877,0.01770526357,524.9473877,0.02600951493
524.0415649,0.02767121606,524.0415649,0.02725165337,524.0415649,0.02854362875,524.0415649,0.02714218944,524.0415649,0.01868334599,524.0415649,0.02664801665
522.9844971,0.02929019928,522.9844971,0.02864487283,522.9844971,0.02889604494,522.9844971,0.02827749401,522.9844971,0.01974473335,522.9844971,0.02792309411
521.9271851,0.03036142886,521.9271851,0.02985132486,521.9271851,0.02989538759,521.9271851,0.02897789143,521.9271851,0.02082409337,521.9271851,0.02867938392
521.020752,0.03110751882,521.020752,0.03038963489,521.020752,0.03106430732,521.020752,0.03006926551,521.020752,0.02180866152,521.020752,0.02994205989
519.9630127,0.03170989826,519.9630127,0.03101665154,519.9630127,0.03218207508,519.9630127,0.0309643317,519.9630127,0.02231732942,519.9630127,0.03075869568
519.0561523,0.03270483389,519.0561523,0.03214737028,519.0561523,0.03219423071,519.0561523,0.03139857203,519.0561523,0.02376641519,519.0561523,0.03126686066
517.9979858,0.03321894258,517.9979858,0.03357100859,517.9979858,0.03344324976,517.9979858,0.03268523887,517.9979858,0.02418908291,517.9979858,0.03279245272
516.9395142,0.03413072228,516.9395142,0.03355076164,516.9395142,0.0347898379,516.9395142,0.03342870995,516.9395142,0.02504900843,516.9395142,0.03311020136
516.0320435,0.03494226187,516.0320435,0.0347665064,516.0320435,0.03512465581,516.0320435,0.03441268578,516.0320435,0.0258908011,516.0320435,0.03395599499
514.9731445,0.0355976969,514.9731445,0.03558833897,514.9731445,0.03599508479,514.9731445,0.03583796322,514.9731445,0.02665167674,514.9731445,0.03502455354
514.0653687,0.03682812303,514.0653687,0.03590870276,514.0653687,0.03635827452,514.0653687,0.03549886122,514.0653687,0.02793543413,514.0653687,0.0352634415
513.0059814,0.03667343408,513.0059814,0.036646083,513.0059814,0.03725434095,513.0059814,0.03642622754,513.0059814,0.02779152058,513.0059814,0.03588466346
511.9463806,0.0377150774,511.9463806,0.03783144802,511.9463806,0.03796946257,511.9463806,0.03714009747,511.9463806,0.02849674597,511.9463806,0.0369570516
511.0379639,0.03916510567,511.0379639,0.03764387593,511.0379639,0.03843605146,511.0379639,0.03781729937,511.0379639,0.02916983888,511.0379639,0.03781653568
509.9779358,0.03979647905,509.9779358,0.03849301487,509.9779358,0.03903866559,509.9779358,0.03850650415,509.9779358,0.02954243682,509.9779358,0.0381555073
509.0691223,0.03963337839,509.0691223,0.03912207857,509.0691223,0.03945526108,509.0691223,0.03905483708,509.0691223,0.03031604178,509.0691223,0.03836071491
508.0086365,0.04010261223,508.0086365,0.03948281705,508.0086365,0.03999304026,508.0086365,0.03924344108,508.0086365,0.03103166446,508.0086365,0.03920780122
506.9479065,0.04078576341,506.9479065,0.04014503211,506.9479065,0.04021062329,506.9479065,0.03991352022,506.9479065,0.0314207226,506.9479065,0.04029849172
506.0385132,0.04153344408,506.0385132,0.04095683247,506.0385132,0.04093814269,506.0385132,0.04033007845,506.0385132,0.03134576231,506.0385132,0.04004197568
504.9773254,0.04138247669,504.9773254,0.04095333442,504.9773254,0.04130924866,504.9773254,0.04066839814,504.9773254,0.03211096674,504.9773254,0.04024981335
504.0675659,0.04111558944,504.0675659,0.04112142324,504.0675659,0.04189034924,504.0675659,0.04166144133,504.0675659,0.03224753588,504.0675659,0.04072275385
503.0059509,0.04161642492,503.0059509,0.04196427763,503.0059509,0.04222275689,503.0059509,0.04151339084,503.0059509,0.0335980542,503.0059509,0.04183721542
501.9440918,0.04181418568,501.9440918,0.0416312702,501.9440918,0.04219360277,501.9440918,0.04095267877,501.9440918,0.03273341432,501.9440918,0.04148935527
501.0337524,0.04247970879,501.0337524,0.04167597368,501.0337524,0.04226341471,501.0337524,0.04183026031,501.0337524,0.03252334148,501.0337524,0.04206513613
499.9714355,0.0420916602,499.9714355,0.04185956344,499.9714355,0.04256606847,499.9714355,0.04200388119,499.9714355,0.03295562789,499.9714355,0.04133976996
499.06073,0.04198774323,499.06073,0.04182675481,499.06073,0.04257366434,499.06073,0.04177568108,499.06073,0.03308114782,499.06073,0.04153150693
497.9979858,0.04288325086,497.9979858,0.04201280698,497.9979858,0.04260393232,497.9979858,0.04219351709,497.9979858,0.03323911875,497.9979858,0.04177112132
496.9350281,0.04306089506,496.9350281,0.04250734299,496.9350281,0.04262888804,496.9350281,0.04168662801,496.9350281,0.03322048113,496.9350281,0.04189545289
496.0237122,0.0426444523,496.0237122,0.04210948572,496.0237122,0.04272864386,496.0237122,0.04182806611,496.0237122,0.03322673962,496.0237122,0.04186922684
494.9603271,0.04224700853,494.9603271,0.0420492515,494.9603271,0.04261712357,494.9603271,0.04173652455,494.9603271,0.03364123777,494.9603271,0.04170252755
494.048645,0.04225956276,494.048645,0.04221676663,494.048645,0.0424227342,494.048645,0.04196997732,494.048645,0.03301497549,494.048645,0.04199435934
492.9848022,0.04179369286,492.9848022,0.04149787128,492.9848022,0.04202392697,492.9848022,0.0414067395,492.9848022,0.03278173506,492.9848022,0.04161297902
492.0727539,0.04214074463,492.0727539,0.04150681198,492.0727539,0.04241685569,492.0727539,0.04125749692,492.0727539,0.03260531649,492.0727539,0.04156338051
491.0084839,0.04256818071,491.0084839,0.04185440391,491.0084839,0.04266521335,491.0084839,0.04135400429,491.0084839,0.03282690421,491.0084839,0.04176530614
489.9440002,0.04189100489,489.9440002,0.04168076068,489.9440002,0.04186589271,489.9440002,0.0412116684,489.9440002,0.03231049702,489.9440002,0.04095450044
489.0313721,0.0413294062,489.0313721,0.04107359052,489.0313721,0.04139651731,489.0313721,0.0412414968,489.0313721,0.03235422075,489.0313721,0.04057698697
487.9664612,0.04096718505,487.9664612,0.04096269235,487.9664612,0.04173122346,487.9664612,0.0412183851,487.9664612,0.03190935776,487.9664612,0.04100331292
487.0534668,0.04172581062,487.0534668,0.04080671817,487.0534668,0.04165306315,487.0534668,0.04040203243,487.0534668,0.03151142597,487.0534668,0.0405776985
485.9880981,0.04040814191,485.9880981,0.04007303342,485.9880981,0.04073350132,485.9880981,0.04036140814,485.9880981,0.03113421611,485.9880981,0.03980410844
485.0747681,0.04030306637,485.0747681,0.03996783867,485.0747681,0.04041907936,485.0747681,0.03990546241,485.0747681,0.0312852785,485.0747681,0.0402732417
484.0089722,0.04017421976,484.0089722,0.04065969959,484.0089722,0.04051310197,484.0089722,0.03978742659,484.0089722,0.03104287013,484.0089722,0.03944868594
482.9429626,0.04059927166,482.9429626,0.0403691642,482.9429626,0.04072005302,482.9429626,0.04008836299,482.9429626,0.0307841748,482.9429626,0.03944658861
482.0290833,0.03980186954,482.0290833,0.03982456401,482.0290833,0.03995634243,482.0290833,0.0390441604,482.0290833,0.03025370464,482.0290833,0.03900253028
480.9626465,0.03944959491,480.9626465,0.03955749795,480.9626465,0.03982964531,480.9626465,0.0389717482,480.9626465,0.02991687879,480.9626465,0.03901011869
480.0483704,0.03951043263,480.0483704,0.03895447403,480.0483704,0.03945305198,480.0483704,0.03880327195,480.0483704,0.02973308228,480.0483704,0.03847318515
478.9815063,0.03954680637,478.9815063,0.03879735619,478.9815063,0.03957816958,478.9815063,0.0387316905,478.9815063,0.02959782816,478.9815063,0.03869405389
478.0668945,0.0392886959,478.0668945,0.0393448323,478.0668945,0.03931929916,478.0668945,0.03857487813,478.0668945,0.02949921414,478.0668945,0.03910009563
476.9996033,0.03917354718,476.9996033,0.0390118733,476.9996033,0.03914760053,476.9996033,0.03852605075,476.9996033,0.02992445044,476.9996033,0.03849292919
475.9321289,0.03931870311,475.9321289,0.03922100365,475.9321289,0.03928535059,475.9321289,0.03886713088,475.9321289,0.02994303033,475.9321289,0.03880669549
475.0169373,0.03955486044,475.0169373,0.03920162469,475.0169373,0.03980825096,475.0169373,0.03891554475,475.0169373,0.02997467667,475.0169373,0.03885804489
473.9490356,0.03983236849,473.9490356,0.03957496211,473.9490356,0.0404272899,473.9490356,0.0393098332,473.9490356,0.03035062924,473.9490356,0.03949951753
473.0334778,0.04027809948,473.0334778,0.03993091732,473.0334778,0.04037731886,473.0334778,0.04005367309,473.0334778,0.03088305518,473.0334778,0.03946853057
471.9651489,0.04088066146,471.9651489,0.04059469327,471.9651489,0.04095438495,471.9651489,0.0406556651,471.9651489,0.03188734874,471.9651489,0.04048431665
471.0492859,0.04169403762,471.0492859,0.04120668769,471.0492859,0.04240503907,471.0492859,0.04121178389,471.0492859,0.03246534243,471.0492859,0.04103893414
469.9805298,0.04289190844,469.9805298,0.04212483019,469.9805298,0.04259713367,469.9805298,0.04242730141,469.9805298,0.03365885839,469.9805298,0.04169782624
469.0643005,0.04303522781,469.0643005,0.04282682389,469.0643005,0.04364924133,469.0643005,0.04250280559,469.0643005,0.03373223543,469.0643005,0.04243383929
467.9951477,0.04388100281,467.9951477,0.04431402683,467.9951477,0.04446684942,467.9951477,0.04335000366,467.9951477,0.03442291543,467.9951477,0.04317779094
466.9257507,0.04485392943,466.9257507,0.04505980387,466.9257507,0.04534935579,466.9257507,0.04542033747,466.9257507,0.03567912802,466.9257507,0.04429204017
466.0089722,0.0456712544,466.0089722,0.04600181803,466.0089722,0.0464764908,466.0089722,0.04497458413,466.0089722,0.03639230505,466.0089722,0.04512927309
464.9391785,0.04651215672,464.9391785,0.04635556415,464.9391785,0.04672435299,464.9391785,0.04603552073,464.9391785,0.03713846207,464.9391785,0.04611683264
464.0220642,0.04741451517,464.0220642,0.04749799147,464.0220642,0.04744789004,464.0220642,0.04773462191,464.0220642,0.03803399205,464.0220642,0.04732452706
462.9518738,0.0481291078,462.9518738,0.0479491502,462.9518738,0.048264388,462.9518738,0.04809894785,462.9518738,0.03898853809,462.9518738,0.04828675091
462.0343933,0.04871321842,462.0343933,0.04881296307,462.0343933,0.04866259918,462.0343933,0.04920147359,462.0343933,0.0392382592,462.0343933,0.04819048196
460.9637756,0.04925203696,460.9637756,0.04899878427,460.9637756,0.04981570691,460.9637756,0.04960652441,460.9637756,0.04027889669,460.9637756,0.04954236746
460.0459595,0.05017672852,460.0459595,0.05001104996,460.0459595,0.05017324165,460.0459595,0.05052036792,460.0459595,0.04079756141,460.0459595,0.04961009324
458.9749451,0.05090662837,458.9749451,0.05121047422,458.9749451,0.05131152272,458.9749451,0.05059435219,458.9749451,0.04156580195,458.9749451,0.05080709979
458.0567932,0.0514851585,458.0567932,0.05123403668,458.0567932,0.0516836755,458.0567932,0.05108298361,458.0567932,0.04228255898,458.0567932,0.05090831593
456.9853821,0.05224744603,456.9853821,0.05207339302,456.9853821,0.0520628579,456.9853821,0.05172858015,456.9853821,0.0433325842,456.9853821,0.05155618861
456.066864,0.05237227678,456.066864,0.05266505107,456.066864,0.05236205459,456.066864,0.0528058745,456.066864,0.04322877154,456.066864,0.05194048211
454.9950562,0.05373043939,454.9950562,0.05304927379,454.9950562,0.05323569104,454.9950562,0.05323636532,454.9950562,0.04376317188,454.9950562,0.05281005427
454.0762024,0.05433339626,454.0762024,0.05323174223,454.0762024,0.05421739072,454.0762024,0.05294214934,454.0762024,0.04396904632,454.0762024,0.05294653401
453.0039978,0.05426546186,453.0039978,0.05338278413,453.0039978,0.05365392566,453.0039978,0.05315057561,453.0039978,0.04416384175,453.0039978,0.05341843888
451.9315796,0.05391189829,451.9315796,0.05437097698,451.9315796,0.05413903296,451.9315796,0.05346861854,451.9315796,0.04434157908,451.9315796,0.05372103304
451.012207,0.05432400852,451.012207,0.05465397984,451.012207,0.05460835993,451.012207,0.05403406918,451.012207,0.04477537796,451.012207,0.05421668664
449.9393921,0.05500999838,449.9393921,0.05516760051,449.9393921,0.05538395047,449.9393921,0.0542945303,449.9393921,0.04518605769,449.9393921,0.05412759632
449.0196838,0.05441883206,449.0196838,0.05450407788,449.0196838,0.05574365705,449.0196838,0.05441806838,449.0196838,0.04541364312,449.0196838,0.054349415
447.9464722,0.0547160767,447.9464722,0.05462057143,447.9464722,0.05600797012,447.9464722,0.05441542715,447.9464722,0.04566694051,447.9464722,0.05474919826
447.0263977,0.05505533516,447.0263977,0.05481809005,447.0263977,0.05532437563,447.0263977,0.05551147833,447.0263977,0.04581287131,447.0263977,0.05474053323
445.9528198,0.05533355102,445.9528198,0.05539971218,445.9528198,0.05575333908,445.9528198,0.05536266044,445.9528198,0.04607742652,445.9528198,0.05529479682
445.0324097,0.05575345829,445.0324097,0.05604728684,445.0324097,0.0556794107,445.0324097,0.05587441102,445.0324097,0.04633367434,445.0324097,0.05530641228
443.9584351,0.05577123538,443.9584351,0.05615285411,443.9584351,0.05649589375,443.9584351,0.05540803447,443.9584351,0.04627789184,443.9584351,0.05510029569
443.0377197,0.05639566481,443.0377197,0.05543956161,443.0377197,0.05595950037,443.0377197,0.05554663017,443.0377197,0.04649164528,443.0377197,0.05621039122
441.9633179,0.05574209616,441.9633179,0.05537747964,441.9633179,0.05663589761,441.9633179,0.05551259592,441.9633179,0.04636408761,441.9633179,0.05545011908
441.0422668,0.05697559565,441.0422668,0.0559800528,441.0422668,0.05581105873,441.0422668,0.05532875657,441.0422668,0.04644341767,441.0422668,0.05611220375
439.9674988,0.05621445552,439.9674988,0.05571396276,439.9674988,0.05640244484,439.9674988,0.05588562414,439.9674988,0.04676479846,439.9674988,0.05641358346
439.0461121,0.05625526607,439.0461121,0.05562562495,439.0461121,0.05638334155,439.0461121,0.05590429157,439.0461121,0.04654235393,439.0461121,0.05570301414
437.9709778,0.05600481853,437.9709778,0.05582807213,437.9709778,0.05637291074,437.9709778,0.05570436642,437.9709778,0.04657664523,437.9709778,0.05569962785
437.0492554,0.05581047013,437.0492554,0.05557139963,437.0492554,0.05687434226,437.0492554,0.05582300946,437.0492554,0.0470286943,437.0492554,0.05564277619
435.9737244,0.05566843599,435.9737244,0.05541803315,435.9737244,0.05614086613,435.9737244,0.05543547496,435.9737244,0.04608531296,435.9737244,0.0551481694
435.0516663,0.05569915846,435.0516663,0.05522124097,435.0516663,0.05620765314,435.0516663,0.05518717319,435.0516663,0.04612264782,435.0516663,0.05516180769
433.975769,0.05527621508,433.975769,0.05518964306,433.975769,0.05545435473,433.975769,0.05493513867,433.975769,0.04577884451,433.975769,0.05501034856
433.0533752,0.05547809228,433.0533752,0.05506294593,433.0533752,0.0556076169,433.0533752,0.05583328381,433.0533752,0.04592504352,433.0533752,0.05586118996
431.9770813,0.05517206714,431.9770813,0.05557019264,431.9770813,0.05625373498,431.9770813,0.05501105636,431.9770813,0.04659768194,431.9770813,0.05494756624
431.0543823,0.0552678071,431.0543823,0.05511613563,431.0543823,0.05635103956,431.0543823,0.05502924323,431.0543823,0.04553197697,431.0543823,0.0548841171
429.9777222,0.0552056618,429.9777222,0.05482085049,429.9777222,0.05597024783,429.9777222,0.05489401519,429.9777222,0.04564341903,429.9777222,0.05494260043
429.0546875,0.05462227389,429.0546875,0.05505468696,429.0546875,0.05529823899,429.0546875,0.0547558926,429.0546875,0.04558142647,429.0546875,0.05480751768
427.9776611,0.05489897728,427.9776611,0.0546897091,427.9776611,0.05492477119,427.9776611,0.05460316688,427.9776611,0.04541045055,427.9776611,0.05532093719
427.0543213,0.05466281623,427.0543213,0.05447388068,427.0543213,0.05489084125,427.0543213,0.05448520556,427.0543213,0.04515075684,427.0543213,0.05511513725
425.9768982,0.05488097295,425.9768982,0.0546774976,425.9768982,0.05518599972,425.9768982,0.05462022126,425.9768982,0.04547109455,425.9768982,0.05458810553
425.0532227,0.05535354465,425.0532227,0.05478478596,425.0532227,0.05514035374,425.0532227,0.05467550084,425.0532227,0.04547670111,425.0532227,0.05477283522
423.9754333,0.0544581525,423.9754333,0.05415551364,423.9754333,0.05531769991,423.9754333,0.05496028438,423.9754333,0.04503795132,423.9754333,0.05452127382
423.0514526,0.05481336266,423.0514526,0.05466971546,423.0514526,0.0554410629,423.0514526,0.05493178964,423.0514526,0.04520202801,423.0514526,0.05471311137
421.9732666,0.0545341894,421.9732666,0.05454519391,421.9732666,0.05463266745,421.9732666,0.05443068594,421.9732666,0.04505538195,421.9732666,0.05448001251
421.0489807,0.05411601439,421.0489807,0.05481891334,421.0489807,0.05538059771,421.0489807,0.05415862054,421.0489807,0.04490823671,421.0489807,0.05377045646
419.9704285,0.05422891676,419.9704285,0.05440779775,419.9704285,0.05515375361,419.9704285,0.05407558382,419.9704285,0.04488679394,419.9704285,0.0539861694
419.0458069,0.05508633703,419.0458069,0.05409765989,419.0458069,0.05452958122,419.0458069,0.05402199179,419.0458069,0.04460641369,419.0458069,0.05385835841
417.9669189,0.05380792916,417.9669189,0.05395882204,417.9669189,0.0545534119,417.9669189,0.05397805199,417.9669189,0.04456854984,417.9669189,0.05389135703
417.0419922,0.05365495011,417.0419922,0.05371655151,417.0419922,0.05412574857,417.0419922,0.05388631672,417.0419922,0.04426503927,417.0419922,0.05391081423
415.9627075,0.05362490192,415.9627075,0.05331327021,415.9627075,0.05397345126,415.9627075,0.05355470255,415.9627075,0.04428736866,415.9627075,0.05361596867
415.0374756,0.05311424285,415.0374756,0.05321128666,415.0374756,0.05386392772,415.0374756,0.05351165682,415.0374756,0.04420210049,415.0374756,0.05335541815
413.9578247,0.05286767706,413.9578247,0.05351174623,413.9578247,0.05369921029,413.9578247,0.05376210809,413.9578247,0.04471899197,413.9578247,0.05331163108
413.0322876,0.05305527151,413.0322876,0.05320037529,413.0322876,0.05315420404,413.0322876,0.05304593965,413.0322876,0.04375498369,413.0322876,0.05302590504
411.952301,0.05299806222,411.952301,0.05284770578,411.952301,0.05298233032,411.952301,0.05324719101,411.952301,0.04327172413,411.952301,0.05283811688
411.0264282,0.05257771164,411.0264282,0.05273647979,411.0264282,0.05281768367,411.0264282,0.05270436034,411.0264282,0.04317516088,411.0264282,0.05262773484
409.9460754,0.05281949788,409.9460754,0.05267317593,409.9460754,0.05268600583,409.9460754,0.05257289112,409.9460754,0.04309028015,409.9460754,0.05300914869
409.0198975,0.05244914442,409.0198975,0.05237639323,409.0198975,0.05258633196,409.0198975,0.05245954543,409.0198975,0.04298535362,409.0198975,0.05225054175
407.9391785,0.05219300091,407.9391785,0.05183202401,407.9391785,0.0520766899,407.9391785,0.05204391852,407.9391785,0.04309236631,407.9391785,0.05181000382
407.0126953,0.05158315226,407.0126953,0.05198844522,407.0126953,0.05187078938,407.0126953,0.05159428716,407.0126953,0.0423088111,407.0126953,0.05183832347
405.9316406,0.05190795287,405.9316406,0.05138168111,405.9316406,0.05157120153,405.9316406,0.05127348006,405.9316406,0.04191406816,405.9316406,0.05143896863
405.0048523,0.05090013519,405.0048523,0.05115583912,405.0048523,0.05138173699,405.0048523,0.05156845972,405.0048523,0.04162015766,405.0048523,0.05104658753
403.9234009,0.05090467632,403.9234009,0.05107975006,403.9234009,0.05119876564,403.9234009,0.05073359981,403.9234009,0.04139184579,403.9234009,0.05088948458
402.9963379,0.05069287121,402.9963379,0.05072013289,402.9963379,0.05100399628,402.9963379,0.05118426308,402.9963379,0.04103679955,402.9963379,0.0505839996
402.0690918,0.05028983206,402.0690918,0.05011103675,402.0690918,0.05054863542,402.0690918,0.05065985397,402.0690918,0.04094829783,402.0690918,0.05034819618
400.9871521,0.04992131144,400.9871521,0.04991524294,400.9871521,0.050855726,400.9871521,0.05005000159,400.9871521,0.04051636904,400.9871521,0.05022522435
400.0596313,0.04960774258,400.0596313,0.04964973405,400.0596313,0.0501748994,400.0596313,0.04984009638,400.0596313,0.04028642178,400.0596313,0.05018800125
398.9773254,0.04949496314,398.9773254,0.04960855469,398.9773254,0.04988890514,398.9773254,0.04957306758,398.9773254,0.04029039666,398.9773254,0.04957901314
398.0494995,0.04951712862,398.0494995,0.04962909967,398.0494995,0.04987987503,398.0494995,0.0496461913,398.0494995,0.03986025974,398.0494995,0.04940523952
396.9668579,0.04921022803,396.9668579,0.04932493344,396.9668579,0.04944358766,396.9668579,0.0492041111,396.9668579,0.03985140473,396.9668579,0.04962518066
396.0387268,0.0488653034,396.0387268,0.04883219674,396.0387268,0.04942963645,396.0387268,0.04895607382,396.0387268,0.03961185738,396.0387268,0.04894538224
394.955719,0.04887851328,394.955719,0.04862936214,394.955719,0.04921167716,394.955719,0.0489157699,394.955719,0.03968261555,394.955719,0.0489474684
394.0273132,0.0490420796,394.0273132,0.04894439504,394.0273132,0.04914459586,394.0273132,0.04887889326,394.0273132,0.03951114044,394.0273132,0.04961975664
392.9439697,0.04843840003,392.9439697,0.04849350452,392.9439697,0.04886220396,392.9439697,0.04906277359,392.9439697,0.03910278529,392.9439697,0.04939932376
392.0152283,0.04818235338,392.0152283,0.04868906736,392.0152283,0.04895253852,392.0152283,0.04867218435,392.0152283,0.03916751593,392.0152283,0.04938493669
390.9315491,0.04892802611,390.9315491,0.04965043068,390.9315491,0.04926076531,390.9315491,0.04921886697,390.9315491,0.03931975365,390.9315491,0.04900359362
390.002533,0.04878005758,390.002533,0.04948686808,390.002533,0.04929909855,390.002533,0.04897803813,390.002533,0.03935007751,390.002533,0.04895552248
389.0733948,0.04877417907,389.0733948,0.04885829613,389.0733948,0.04916114733,389.0733948,0.04893384874,389.0733948,0.03948131576,389.0733948,0.04911616072
387.9892273,0.04883126915,387.9892273,0.04890001193,387.9892273,0.05048242211,387.9892273,0.04949174076,387.9892273,0.03957989812,387.9892273,0.04935898259
387.0597839,0.04929947481,387.0597839,0.04928509146,387.0597839,0.04967826232,387.0597839,0.04942360148,387.0597839,0.03979568183,387.0597839,0.04932621121
385.9752502,0.04951646179,385.9752502,0.04938612878,385.9752502,0.0497957617,385.9752502,0.0500581935,385.9752502,0.04007095844,385.9752502,0.04939427599
385.0455017,0.04992584139,385.0455017,0.05032898113,385.0455017,0.05013000965,385.0455017,0.04960286617,385.0455017,0.04039879516,385.0455017,0.04993243143
383.9606628,0.05083875731,383.9606628,0.04982023686,383.9606628,0.05106964707,383.9606628,0.05059961602,383.9606628,0.04169677198,383.9606628,0.05037764087
383.0306396,0.05030668899,383.0306396,0.05105054751,383.0306396,0.05088890344,383.0306396,0.05037400872,383.0306396,0.04104635864,383.0306396,0.05047320575
381.9454346,0.05129576474,381.9454346,0.05055619404,381.9454346,0.05079819262,381.9454346,0.05064635724,381.9454346,0.04150265455,381.9454346,0.05084082484
381.0151367,0.05140834302,381.0151367,0.05158589035,381.0151367,0.05151462555,381.0151367,0.05090653896,381.0151367,0.04146671295,381.0151367,0.05131117254
379.9295959,0.0521646589,379.9295959,0.05213065445,379.9295959,0.05185016617,379.9295959,0.05151619762,379.9295959,0.04211128131,379.9295959,0.05192382261
378.9990234,0.05192592368,378.9990234,0.05288843438,378.9990234,0.05217382312,378.9990234,0.05190106854,378.9990234,0.04245093465,378.9990234,0.05240031332
378.0682678,0.05390533432,378.0682678,0.05237008631,378.0682678,0.05252454057,378.0682678,0.05226633698,378.0682678,0.04286502302,378.0682678,0.05264938995
376.9822693,0.05324868485,376.9822693,0.05296653882,376.9822693,0.05379433557,376.9822693,0.05343647301,376.9822693,0.04356598482,376.9822693,0.05441067368
376.0512695,0.054356426,376.0512695,0.05417688936,376.0512695,0.0543885231,376.0512695,0.05424311012,376.0512695,0.04424870014,376.0512695,0.05426091328
374.9649048,0.05421237648,374.9649048,0.05430570617,374.9649048,0.05474388227,374.9649048,0.05453647673,374.9649048,0.04474521801,374.9649048,0.05476220325
374.0336304,0.05512313172,374.0336304,0.05510802567,374.0336304,0.05612101033,374.0336304,0.05515278503,374.0336304,0.04522256553,374.0336304,0.05530541018
372.9469604,0.05600143224,372.9469604,0.05608501658,372.9469604,0.05618581921,372.9469604,0.05684212223,372.9469604,0.04610733315,372.9469604,0.05594554171
372.0153809,0.05635313317,372.0153809,0.05647410452,372.0153809,0.05675420538,372.0153809,0.05696500093,372.0153809,0.04689463601,372.0153809,0.05693513528
370.9283752,0.05692686886,370.9283752,0.05763613805,370.9283752,0.05749566481,370.9283752,0.05763495713,370.9283752,0.04750547186,370.9283752,0.05769378319
369.996521,0.05778535083,369.996521,0.05806771666,369.996521,0.05855799094,369.996521,0.05836776644,369.996521,0.04824960604,369.996521,0.0581186749
369.0645447,0.05910448357,369.0645447,0.05876848102,369.0645447,0.05865454301,369.0645447,0.05845675245,369.0645447,0.04889163747,369.0645447,0.05905765668
367.9770813,0.05912050232,367.9770813,0.05871409923,367.9770813,0.0594105944,367.9770813,0.05863374099,367.9770813,0.04970249534,367.9770813,0.05966850743
367.0448303,0.05970319733,367.0448303,0.05973224342,367.0448303,0.0601509586,367.0448303,0.0598455444,367.0448303,0.04975988343,367.0448303,0.06013320759
365.9570313,0.06036216021,365.9570313,0.0605199337,365.9570313,0.06073747948,365.9570313,0.06069112569,365.9570313,0.05089725554,365.9570313,0.06127709523
365.0245056,0.06089499965,365.0245056,0.06105796993,365.0245056,0.06129018217,365.0245056,0.06148896739,365.0245056,0.05145184696,365.0245056,0.06147158146
363.9363708,0.0614647232,363.9363708,0.06133901328,363.9363708,0.06177067757,363.9363708,0.06219091639,363.9363708,0.05182933807,363.9363708,0.06181117892
363.0035706,0.06175095215,363.0035706,0.06175292283,363.0035706,0.0619543381,363.0035706,0.06191478297,363.0035706,0.05210876465,363.0035706,0.06223862246
362.0706482,0.06205771118,362.0706482,0.06224707887,362.0706482,0.06245741993,362.0706482,0.06279748678,362.0706482,0.0523102507,362.0706482,0.06264209002
360.9820557,0.06276458502,360.9820557,0.0626667887,360.9820557,0.06292125583,360.9820557,0.0629074648,360.9820557,0.05309788883,360.9820557,0.06350629032
360.0488586,0.06306601316,360.0488586,0.06313635409,360.0488586,0.06337492913,360.0488586,0.06349913031,360.0488586,0.05343946069,360.0488586,0.0637306422
358.9599609,0.06295345724,358.9599609,0.06291227788,358.9599609,0.06319192052,358.9599609,0.06325243413,358.9599609,0.0532062538,358.9599609,0.063627325
358.0264893,0.06353855878,358.0264893,0.06365594268,358.0264893,0.06387972087,358.0264893,0.06374374777,358.0264893,0.05363807827,358.0264893,0.06357292831
356.9372864,0.06368601322,356.9372864,0.0639782697,356.9372864,0.06452342868,356.9372864,0.06407297403,356.9372864,0.05423460528,356.9372864,0.06460633129
356.00354,0.0636267513,356.00354,0.06400631368,356.00354,0.06445255876,356.00354,0.06463027,356.00354,0.05448224396,356.00354,0.06479837745
355.0696716,0.06390643865,355.0696716,0.06444048882,355.0696716,0.0646020025,355.0696716,0.06441950053,355.0696716,0.05465767905,355.0696716,0.06481499225
353.980011,0.06481385231,353.980011,0.06419607997,353.980011,0.0647777319,353.980011,0.06463918835,353.980011,0.05467535183,353.980011,0.0648638308
353.0458679,0.06438389421,353.0458679,0.06477517635,353.0458679,0.06464892626,353.0458679,0.06492953748,353.0458679,0.05482108518,353.0458679,0.06497342885
351.9559021,0.0646533072,351.9559021,0.06437083334,351.9559021,0.06508500874,351.9559021,0.0648355484,351.9559021,0.05481456593,351.9559021,0.06513507664
351.0215149,0.06440217793,351.0215149,0.06440316886,351.0215149,0.0651742667,351.0215149,0.06468428671,351.0215149,0.05472306535,351.0215149,0.06505268067
349.9312134,0.06436003,349.9312134,0.06447120756,349.9312134,0.06469858438,349.9312134,0.06471090019,349.9312134,0.05485838652,349.9312134,0.06507790834
348.9965515,0.06453809142,348.9965515,0.06485144794,348.9965515,0.06486470252,348.9965515,0.06510362029,348.9965515,0.05492306501,348.9965515,0.06503096968
348.0617676,0.0643702969,348.0617676,0.06458683312,348.0617676,0.06528963149,348.0617676,0.06487161666,348.0617676,0.05485259742,348.0617676,0.06531006098
346.9710388,0.06417060643,346.9710388,0.06426496059,346.9710388,0.06496230513,346.9710388,0.0648078993,346.9710388,0.05486705154,346.9710388,0.06501621008
346.0360107,0.06435774267,346.0360107,0.06468942016,346.0360107,0.06487386674,346.0360107,0.0647252351,346.0360107,0.05485559627,346.0360107,0.06535699219
344.9449768,0.06474915147,344.9449768,0.06452478468,344.9449768,0.06519559026,344.9449768,0.06476724148,344.9449768,0.05496992171,344.9449768,0.06489163637
344.0096741,0.06481529027,344.0096741,0.06517862529,344.0096741,0.06505842507,344.0096741,0.06489166617,344.0096741,0.0549759157,344.0096741,0.06555987895
343.0742493,0.06443523616,343.0742493,0.06468969584,343.0742493,0.06460329145,343.0742493,0.0649709031,343.0742493,0.05512169003,343.0742493,0.06516560912
341.9827881,0.06449517608,341.9827881,0.06470378488,341.9827881,0.06502529234,341.9827881,0.06480705738,341.9827881,0.05502510071,341.9827881,0.06528644264
341.0470886,0.06434828788,341.0470886,0.06406351924,341.0470886,0.06524255127,341.0470886,0.06480646133,341.0470886,0.05515278503,341.0470886,0.06504044682
339.9553223,0.06431019306,339.9553223,0.06469723582,339.9553223,0.06486587226,339.9553223,0.06476054341,339.9553223,0.05446328595,339.9553223,0.06530999392
339.0194092,0.06436047703,339.0194092,0.06431400776,339.0194092,0.06443523616,339.0194092,0.06474176049,339.0194092,0.05437590554,339.0194092,0.06465709955
337.9273376,0.0642748028,337.9273376,0.06418182701,337.9273376,0.06441664696,337.9273376,0.06450223178,337.9273376,0.05442493409,337.9273376,0.06474554539
336.9911499,0.06399128586,336.9911499,0.06430020183,336.9911499,0.06442482024,336.9911499,0.06435041875,336.9911499,0.05447437987,336.9911499,0.06488799304
336.0548401,0.06360658258,336.0548401,0.06397550553,336.0548401,0.06421645731,336.0548401,0.06460806727,336.0548401,0.05466043949,336.0548401,0.06521767378
334.9623413,0.06378763169,334.9623413,0.06412478536,334.9623413,0.06409532577,334.9623413,0.06409883499,334.9623413,0.05391711742,334.9623413,0.06444406509
334.0257874,0.0635394901,334.0257874,0.06396941841,334.0257874,0.06403966993,334.0257874,0.06398222595,334.0257874,0.05385950208,334.0257874,0.06443884224
332.9329834,0.06381452829,332.9329834,0.06333910674,332.9329834,0.06389555335,332.9329834,0.06411998719,332.9329834,0.05372530967,332.9329834,0.06454025209
331.9961853,0.06370117515,331.9961853,0.06390361488,331.9961853,0.06402413547,331.9961853,0.06392866373,331.9961853,0.05349687114,331.9961853,0.06421282887
331.0592651,0.06331247836,331.0592651,0.0631538406,331.0592651,0.06391336769,331.0592651,0.06369317323,331.0592651,0.05340462178,331.0592651,0.06423077732
329.9660339,0.06345374137,329.9660339,0.06305284053,329.9660339,0.06363538653,329.9660339,0.06342102587,329.9660339,0.05382697657,329.9660339,0.0636369437
329.0288696,0.06311534345,329.0288696,0.06304395199,329.0288696,0.0638833195,329.0288696,0.06332425028,329.0288696,0.05311910063,329.0288696,0.06376592815
327.9353638,0.06287847459,327.9353638,0.06325252354,327.9353638,0.06330484152,327.9353638,0.06315743178,327.9353638,0.05340318754,327.9353638,0.06377714127
326.9979248,0.06256653368,326.9979248,0.06306696683,326.9979248,0.06314790994,326.9979248,0.06324357539,326.9979248,0.05279254168,326.9979248,0.06348552555
326.0603943,0.06290213764,326.0603943,0.06337217242,326.0603943,0.06318392605,326.0603943,0.06321626157,326.0603943,0.05298607424,326.0603943,0.06369134784
324.9664917,0.06290175021,324.9664917,0.06313680857,324.9664917,0.06301043183,324.9664917,0.06324126571,324.9664917,0.05322009325,324.9664917,0.06350952387
324.028717,0.06326039881,324.028717,0.06329385191,324.028717,0.06352169067,324.028717,0.0634515211,324.028717,0.05313770473,324.028717,0.06409307569
322.9344788,0.0631833598,322.9344788,0.06360835582,322.9344788,0.06363286823,322.9344788,0.06374104321,322.9344788,0.05318518728,322.9344788,0.06413348764
321.99646,0.06321048737,321.99646,0.06350874901,321.99646,0.06350679696,321.99646,0.06367683411,321.99646,0.05338413268,321.99646,0.06396123022
321.0583496,0.06296114624,321.0583496,0.06319243461,321.0583496,0.06359735131,321.0583496,0.06373702735,321.0583496,0.05336408317,321.0583496,0.06391159445
319.9637146,0.06324446946,319.9637146,0.06334614009,319.9637146,0.06376487762,319.9637146,0.06382748485,319.9637146,0.05330501869,319.9637146,0.06442418694
319.0253601,0.0636569038,319.0253601,0.06381620467,319.0253601,0.06409180909,319.0253601,0.06393291801,319.0253601,0.05359704792,319.0253601,0.06455010176
317.9304504,0.06356870383,317.9304504,0.06393928081,317.9304504,0.0643601492,317.9304504,0.06387291104,317.9304504,0.05356228724,317.9304504,0.06472851336
316.9918518,0.06398549676,316.9918518,0.06392161548,316.9918518,0.06411638856,316.9918518,0.06426982582,316.9918518,0.05408651754,316.9918518,0.06464648992
316.0531311,0.063896209,316.0531311,0.0642169416,316.0531311,0.06455139071,316.0531311,0.06447376311,316.0531311,0.05418665707,316.0531311,0.06503334641
314.9577942,0.0645442158,314.9577942,0.06487834454,314.9577942,0.06501539797,314.9577942,0.06524242461,314.9577942,0.05456703156,314.9577942,0.06561148167
314.0188599,0.06463931501,314.0188599,0.06452391297,314.0188599,0.06499889493,314.0188599,0.06490855664,314.0188599,0.05434442684,314.0188599,0.06524092704
312.9232788,0.06476955861,312.9232788,0.06496215612,312.9232788,0.06515468657,312.9232788,0.06546783447,312.9232788,0.05508383736,312.9232788,0.06593386829
311.9840698,0.06497111171,311.9840698,0.06518443674,311.9840698,0.06537505239,311.9840698,0.06536424905,311.9840698,0.05520346016,311.9840698,0.06624796987
311.0447693,0.06543809175,311.0447693,0.06538720429,311.0447693,0.06569178402,311.0447693,0.06581770629,311.0447693,0.0552900359,311.0447693,0.06636273861
309.9487915,0.06554741412,309.9487915,0.06511072069,309.9487915,0.065958336,309.9487915,0.06599745154,309.9487915,0.05553748086,309.9487915,0.06625997275
309.0092468,0.06562978774,309.0092468,0.06594568491,309.0092468,0.06628840417,309.0092468,0.06606770307,309.0092468,0.05562479794,309.0092468,0.06664907932
308.0696106,0.06597442925,308.0696106,0.06564348936,308.0696106,0.06610622257,308.0696106,0.0663530305,308.0696106,0.05597048253,308.0696106,0.06698291004
306.9732361,0.06588114798,306.9732361,0.06609299034,306.9732361,0.06619542092,306.9732361,0.06655158103,306.9732361,0.05604784563,306.9732361,0.06690843403
306.0333557,0.06618290395,306.0333557,0.0663992092,306.0333557,0.06665421277,306.0333557,0.06670860201,306.0333557,0.0559511669,306.0333557,0.06715431064
304.9367065,0.06609328836,304.9367065,0.06634859741,304.9367065,0.06651613116,304.9367065,0.0667802617,304.9367065,0.05601073802,304.9367065,0.06718184054
303.9966125,0.06607158482,303.9966125,0.0663491413,303.9966125,0.06691066921,303.9966125,0.06663490087,303.9966125,0.05644910783,303.9966125,0.06727660447
303.056427,0.06607653201,303.056427,0.06617952883,303.056427,0.06644596159,303.056427,0.06647848338,303.056427,0.05592513829,303.056427,0.06704714894
301.9593811,0.06629959494,301.9593811,0.06619415432,301.9593811,0.06660468876,301.9593811,0.06651823968,301.9593811,0.05605084822,301.9593811,0.06725925952
301.0189514,0.06599491835,301.0189514,0.06633222103,301.0189514,0.06677684933,301.0189514,0.06691498309,301.0189514,0.05627111718,301.0189514,0.06713718176
299.9216309,0.06609066576,299.9216309,0.06629120559,299.9216309,0.0665108189,299.9216309,0.06634703279,299.9216309,0.05587240681,299.9216309,0.06744927913
298.9809875,0.06610067189,298.9809875,0.06662047654,298.9809875,0.06678587943,298.9809875,0.06676278263,298.9809875,0.05626139417,298.9809875,0.0675046742
298.0402222,0.06637408584,298.0402222,0.0665107891,298.0402222,0.06688515097,298.0402222,0.06692244112,298.0402222,0.05652254447,298.0402222,0.06759461015
296.9425354,0.06597756594,296.9425354,0.06590467691,296.9425354,0.06660623103,296.9425354,0.06682376564,296.9425354,0.05566511303,296.9425354,0.06642867625
296.0015564,0.06561406702,296.0015564,0.06637604535,296.0015564,0.06652973592,296.0015564,0.06637233496,296.0015564,0.05631700158,296.0015564,0.06703086942
295.0604553,0.06627495587,295.0604553,0.06663574278,295.0604553,0.06625776738,295.0604553,0.06621389836,295.0604553,0.05558975786,295.0604553,0.0668714419
293.9624023,0.06654165685,293.9624023,0.06664355844,293.9624023,0.0668380782,293.9624023,0.06689049304,293.9624023,0.05604501814,293.9624023,0.06774111837
293.0210876,0.06627719104,293.0210876,0.06651619077,293.0210876,0.06680504978,293.0210876,0.06692504138,293.0210876,0.05596877635,293.0210876,0.06742617488
291.92276,0.06600121409,291.92276,0.06639582664,291.92276,0.06675487757,291.92276,0.06693204492,291.92276,0.05581088364,291.92276,0.06737091392
290.9812317,0.06617799401,290.9812317,0.06653924286,290.9812317,0.06695692986,290.9812317,0.06688457727,290.9812317,0.05668447167,290.9812317,0.06745094061
290.0396118,0.06656727195,290.0396118,0.06679016352,290.0396118,0.06723768264,290.0396118,0.06704606861,290.0396118,0.05596753955,290.0396118,0.06783851981
288.940918,0.06599932164,288.940918,0.06621733308,288.940918,0.06669525802,288.940918,0.06667778641,288.940918,0.055707369,288.940918,0.06757643819
287.999054,0.06573689729,287.999054,0.06600140035,287.999054,0.06659594178,287.999054,0.06630101055,287.999054,0.0556088537,287.999054,0.06723508239
287.0571289,0.06596262008,287.0571289,0.06604593992,287.0571289,0.06666154414,287.0571289,0.06640221924,287.0571289,0.05590647087,287.0571289,0.0670504719
285.9580688,0.06578818709,285.9580688,0.06618160754,285.9580688,0.06651411206,285.9580688,0.0666538775,285.9580688,0.05565990135,285.9580688,0.06717096269
285.0158997,0.06588277221,285.0158997,0.06612566113,285.0158997,0.06656485796,285.0158997,0.06655402482,285.0158997,0.05555566028,285.0158997,0.06725841016
284.0736389,0.06574334204,284.0736389,0.0660051927,284.0736389,0.06652316451,284.0736389,0.06633777171,284.0736389,0.05598812178,284.0736389,0.06736771017
282.9742126,0.06547261775,282.9742126,0.06575412303,282.9742126,0.06593625247,282.9742126,0.06575439125,282.9742126,0.05543338507,282.9742126,0.06728029251
282.0317383,0.0656799525,282.0317383,0.06627643108,282.0317383,0.06613048166,282.0317383,0.06646598876,282.0317383,0.0552406162,282.0317383,0.06771055609
280.9320679,0.06565128267,280.9320679,0.06583358347,280.9320679,0.06631014496,280.9320679,0.06652297825,280.9320679,0.05546179786,280.9320679,0.06836028397
279.9893799,0.06551213562,279.9893799,0.06582596153,279.9893799,0.06631204486,279.9893799,0.06669619679,279.9893799,0.05646254867,279.9893799,0.06916484982
279.0466003,0.06563457102,279.0466003,0.06591775268,279.0466003,0.06629163027,279.0466003,0.06687168032,279.0466003,0.05687747151,279.0466003,0.07051163167
277.9465637,0.06544534862,277.9465637,0.06588976085,277.9465637,0.06640424579,277.9465637,0.06737907231,277.9465637,0.0577962026,277.9465637,0.07314235717
277.0035706,0.0653982535,277.0035706,0.06621173024,277.0035706,0.06695170701,277.0035706,0.06866294891,277.0035706,0.06055909395,277.0035706,0.07723522931
276.0604858,0.06591636688,276.0604858,0.06663522869,276.0604858,0.06818921864,276.0604858,0.0706152916,276.0604858,0.06516548246,276.0604858,0.0859361738
274.960083,0.06637547165,274.960083,0.06768456846,274.960083,0.07002231479,274.960083,0.07487600297,274.960083,0.07410021126,274.960083,0.1064137965
274.0168152,0.0668630451,274.0168152,0.06885953248,274.0168152,0.07374059409,274.0168152,0.08150614798,274.0168152,0.08820774406,274.0168152,0.132703498
273.0734253,0.06735413522,273.0734253,0.07040132582,273.0734253,0.07572048157,273.0734253,0.08733178675,273.0734253,0.09861607105,273.0734253,0.1559213996
271.9726868,0.06709938496,271.9726868,0.06993786246,271.9726868,0.07627282292,271.9726868,0.08838627487,271.9726868,0.1024094671,271.9726868,0.1635265946
271.0290833,0.06742750853,271.0290833,0.06988158077,271.0290833,0.07493893802,271.0290833,0.08404681087,271.0290833,0.09271006286,271.0290833,0.1447973996
269.9281006,0.06662131846,269.9281006,0.06935296953,269.9281006,0.07413137704,269.9281006,0.0830629319,269.9281006,0.09055388719,269.9281006,0.1401045173
268.984314,0.06735964119,268.984314,0.07016084343,268.984314,0.07560635358,268.984314,0.08679322153,268.984314,0.09836019576,268.984314,0.1558379382
268.0404053,0.06782487035,268.0404053,0.07091859728,268.0404053,0.0775674805,268.0404053,0.09146822989,268.0404053,0.1073298976,268.0404053,0.174540624
266.9390869,0.06782453507,266.9390869,0.07184433937,266.9390869,0.07911957055,266.9390869,0.09459894896,266.9390869,0.114038825,266.9390869,0.1882435828
265.9949951,0.06758974493,265.9949951,0.07138695568,265.9949951,0.07801958919,265.9949951,0.09371628612,265.9949951,0.1124757156,265.9949951,0.1850074977
265.0508118,0.06605012715,265.0508118,0.07021099329,265.0508118,0.07748436183,265.0508118,0.09211620688,265.0508118,0.1101736277,265.0508118,0.1819877774
263.9491577,0.06543123722,263.9491577,0.06923728436,263.9491577,0.0767563805,263.9491577,0.09228668362,263.9491577,0.1115441844,263.9491577,0.185626328
263.0047913,0.06436624378,263.0047913,0.06820106506,263.0047913,0.07673677057,263.0047913,0.09284288436,263.0047913,0.1136708185,263.0047913,0.1906422973
262.0603027,0.06444706768,262.0603027,0.06862035394,262.0603027,0.07692303509,262.0603027,0.09485729039,262.0603027,0.1187109873,262.0603027,0.2017290741
260.958313,0.06389081478,260.958313,0.06810820848,260.958313,0.07684390247,260.958313,0.09381628782,260.958313,0.1172172502,260.958313,0.1996543556
260.0136414,0.0643152371,260.0136414,0.06731701642,260.0136414,0.07526044548,260.0136414,0.09160747379,260.0136414,0.1110648736,260.0136414,0.1881986707
259.0688782,0.06327842921,259.0688782,0.06689671427,259.0688782,0.07416199148,259.0688782,0.08900488168,259.0688782,0.1069130599,259.0688782,0.1793155819
257.9665527,0.06310911477,257.9665527,0.06609585136,257.9665527,0.07306203991,257.9665527,0.08707810938,257.9665527,0.1026235074,257.9665527,0.1708126962
257.0216064,0.062928617,257.0216064,0.06623353064,257.0216064,0.07309129089,257.0216064,0.08652371913,257.0216064,0.1029865667,257.0216064,0.1712965816
256.0765686,0.0625718534,256.0765686,0.06536581367,256.0765686,0.07305009663,256.0765686,0.08680710196,256.0765686,0.1034217551,256.0765686,0.1731369942
254.9738922,0.06211334467,254.9738922,0.06506272405,254.9738922,0.07215769589,254.9738922,0.0857553035,254.9738922,0.1019147262,254.9738922,0.1702068895
254.028656,0.06127509847,254.028656,0.06426034123,254.028656,0.07050861418,254.028656,0.08410228789,254.028656,0.09844964743,254.028656,0.1647877991
252.9257813,0.06076153368,252.9257813,0.06290722638,252.9257813,0.06904481351,252.9257813,0.08066584915,252.9257813,0.09306707233,252.9257813,0.1535837799
251.9803619,0.06057052314,251.9803619,0.06305304915,251.9803619,0.06856136024,251.9803619,0.07953418046,251.9803619,0.08911293,251.9803619,0.1466304958
251.0348358,0.05992470309,251.0348358,0.06179115176,251.0348358,0.06745480746,251.0348358,0.07734140754,251.0348358,0.08561911434,251.0348358,0.1398283541
249.9320374,0.05956193432,249.9320374,0.06143761426,249.9320374,0.06636168808,249.9320374,0.07545015216,249.9320374,0.08243835717,249.9320374,0.1334682256
248.9919891,0.05911480635,248.9919891,0.0605170168,248.9919891,0.06562894583,248.9919891,0.07451881468,248.9919891,0.08046381921,248.9919891,0.1301699877
248.0518341,0.05843048543,248.0518341,0.06026647985,248.0518341,0.06455814838,248.0518341,0.07288078964,248.0518341,0.07794477791,248.0518341,0.1247844845
246.954895,0.05857783929,246.954895,0.06028658524,246.954895,0.06445799768,246.954895,0.07206042111,246.954895,0.07552123815,246.954895,0.1212222055
246.0145721,0.05750027299,246.0145721,0.05938218907,246.0145721,0.06302411109,246.0145721,0.06991937011,246.0145721,0.0721417442,246.0145721,0.1146910936
245.0741577,0.05749687552,245.0741577,0.0586620979,245.0741577,0.06278250366,245.0741577,0.06892068684,245.0741577,0.07045552135,245.0741577,0.1117198169
243.9768982,0.05647280812,243.9768982,0.05791769922,243.9768982,0.06191260368,243.9768982,0.06793364137,243.9768982,0.06849788874,243.9768982,0.1081787273
243.0363007,0.05663628131,243.0363007,0.05773890018,243.0363007,0.06105206907,243.0363007,0.06751462072,243.0363007,0.06764832884,243.0363007,0.1066423208
241.9388275,0.05697190762,241.9388275,0.0583640933,241.9388275,0.06195562333,241.9388275,0.06801468134,241.9388275,0.06804338098,241.9388275,0.1078034714
240.9980621,0.05669296533,240.9980621,0.05815412849,240.9980621,0.06173946336,240.9980621,0.06891231239,240.9980621,0.06976556778,240.9980621,0.1125137135
240.0571899,0.05613370612,240.0571899,0.05814057216,240.0571899,0.0634585917,240.0571899,0.07145682722,240.0571899,0.07686880976,240.0571899,0.1253726333
238.9594269,0.056664031,238.9594269,0.05984789133,238.9594269,0.06594462693,238.9594269,0.07772815973,238.9594269,0.08738933504,238.9594269,0.1513137668
238.0183868,0.05826926604,238.0183868,0.06181171536,238.0183868,0.07075373828,238.0183868,0.08778347075,238.0183868,0.1075681672,238.0183868,0.1891619712
237.0772552,0.05989376828,237.0772552,0.06646230817,237.0772552,0.08034329861,237.0772552,0.1071940958,237.0772552,0.151199013,237.0772552,0.2674382925
235.979187,0.06372000277,235.979187,0.07545717061,235.979187,0.1016672775,235.979187,0.1437016428,235.979187,0.2219563872,235.979187,0.4077945054
235.0378876,0.06980900466,235.0378876,0.08754137158,235.0378876,0.1255527735,235.0378876,0.1939015388,235.0378876,0.3210021853,235.0378876,0.5969727039
233.9396057,0.07786799967,233.9396057,0.1051849723,233.9396057,0.1580080837,233.9396057,0.2585989237,233.9396057,0.4574102461,233.9396057,0.8587448001
232.9981384,0.09003787488,232.9981384,0.1275679916,232.9981384,0.2107637674,232.9981384,0.360173732,232.9981384,0.6546363235,232.9981384,1.214731216
232.0565796,0.1029099226,232.0565796,0.1537008882,232.0565796,0.2550215125,232.0565796,0.4589641988,232.0565796,0.8777455688,232.0565796,1.65684402
230.9579926,0.1171697155,230.9579926,0.1793426126,230.9579926,0.3080452383,230.9579926,0.5694836378,230.9579926,1.068237066,230.9579926,2.006079674
230.0162811,0.1256811917,230.0162811,0.1951964349,230.0162811,0.3398612738,230.0162811,0.6358765364,230.0162811,1.204091668,230.0162811,2.220632792
229.0744629,0.1343614161,229.0744629,0.2100142539,229.0744629,0.3656746149,229.0744629,0.7026913166,229.0744629,1.321290493,229.0744629,2.524632931
227.9756012,0.1446966529,227.9756012,0.233854562,227.9756012,0.4133659005,227.9756012,0.7715509534,227.9756012,1.458444595,227.9756012,2.691605091
227.0336304,0.1528785974,227.0336304,0.2465243489,227.0336304,0.4397129118,227.0336304,0.8446637988,227.0336304,1.620996952,227.0336304,2.837875366
225.9345551,0.161620006,225.9345551,0.2597235739,225.9345551,0.4672173262,225.9345551,0.9000501633,225.9345551,1.703590155,225.9345551,2.854063988
224.9924164,0.1663707197,224.9924164,0.269054085,224.9924164,0.4835697412,224.9924164,0.92450881,224.9924164,1.763256192,224.9924164,2.880063057
224.0501862,0.1691975445,224.0501862,0.2736213505,224.0501862,0.4912900031,224.0501862,0.9409575462,224.0501862,1.788500428,224.0501862,2.876975298
222.9508362,0.171016708,222.9508362,0.2763622403,222.9508362,0.4943741262,222.9508362,0.941621542,222.9508362,1.775684476,222.9508362,2.97193265
222.0084534,0.1720881611,222.0084534,0.2752588093,222.0084534,0.490267843,222.0084534,0.9315710068,222.0084534,1.770235419,222.0084534,2.833575964
221.065979,0.1714889407,221.065979,0.271305114,221.065979,0.4797586799,221.065979,0.9066482782,221.065979,1.722322464,221.065979,2.910929203
219.9663391,0.170288682,219.9663391,0.2661621273,219.9663391,0.4663470089,219.9663391,0.8762402534,219.9663391,1.662644506,219.9663391,2.812408447
219.0237122,0.1684280634,219.0237122,0.2600619495,219.0237122,0.4513842165,219.0237122,0.8481020331,219.0237122,1.590612054,219.0237122,2.782160282
217.9238892,0.1647015959,217.9238892,0.249954924,217.9238892,0.427808851,217.9238892,0.7857499719,217.9238892,1.488932371,217.9238892,2.716363668
216.9810944,0.1620120853,216.9810944,0.2415347099,216.9810944,0.4075959325,216.9810944,0.7439402938,216.9810944,1.397908926,216.9810944,2.61433959
216.0382233,0.1597275287,216.0382233,0.231962353,216.0382233,0.3849203885,216.0382233,0.693484962,216.0382233,1.28436327,216.0382233,2.452894688
214.9381256,0.1589015126,214.9381256,0.2251459807,214.9381256,0.3668843508,214.9381256,0.6592707634,214.9381256,1.211250544,214.9381256,2.317724228
213.9951019,0.157535255,213.9951019,0.2191901505,213.9951019,0.3527796268,213.9951019,0.6253179908,213.9951019,1.142661572,213.9951019,2.212270498
213.052002,0.1581472903,213.052002,0.2152183503,213.052002,0.336597681,213.052002,0.5876115561,213.052002,1.057635903,213.052002,2.050263643
211.9516296,0.1586710811,211.9516296,0.2105965316,211.9516296,0.325311631,211.9516296,0.5580883622,211.9516296,1.001515627,211.9516296,1.959255576
211.0083618,0.1600331366,211.0083618,0.2082899809,211.0083618,0.3159369826,211.0083618,0.5316779613,211.0083618,0.9430078864,211.0083618,1.801346421
210.065033,0.1608196646,210.065033,0.2067288607,210.065033,0.3098044097,210.065033,0.5152386427,210.065033,0.9023615718,210.065033,1.753659606
208.964386,0.1644086689,208.964386,0.2068107873,208.964386,0.3047985435,208.964386,0.4968210757,208.964386,0.8623702526,208.964386,1.678252578
208.0209045,0.1683655381,208.0209045,0.2084016502,208.0209045,0.3000319898,208.0209045,0.4806762636,208.0209045,0.8277879953,208.0209045,1.590830445
207.0773468,0.1721511483,207.0773468,0.2099817544,207.0773468,0.2988265753,207.0773468,0.4720586836,207.0773468,0.8016620278,207.0773468,1.53053844
205.9764252,0.1776203364,205.9764252,0.2137571275,205.9764252,0.3002441823,205.9764252,0.4681734443,205.9764252,0.7854334712,205.9764252,1.49450779
205.0327148,0.1828896999,205.0327148,0.2181994766,205.0327148,0.304746151,205.0327148,0.4704129696,205.0327148,0.7860437036,205.0327148,1.497039557
203.9316254,0.1941227615,203.9316254,0.2296902835,203.9316254,0.3177993,203.9316254,0.493376255,203.9316254,0.8222875595,203.9316254,1.567587495
202.9877625,0.2116128951,202.9877625,0.2517257631,202.9877625,0.3583950996,202.9877625,0.5592860579,202.9877625,0.9381667376,202.9877625,1.768101811
202.0438385,0.2389444262,202.0438385,0.2973378301,202.0438385,0.4363445044,202.0438385,0.6962798238,202.0438385,1.243104935,202.0438385,2.13542676
200.9424896,0.2952395976,200.9424896,0.3948656917,200.9424896,0.6701197028,200.9424896,1.008744836,200.9424896,1.702385783,200.9424896,2.784911394
199.9983826,0.3520386815,199.9983826,0.5086878538,199.9983826,0.7857794762,199.9983826,1.366091371,199.9983826,2.256594181,199.9983826,3.069798231